% x_coordinate y_coordinate pressure time
% shape 0, 1145 points
842.536 220.573 0.140 0
842.336 220.573 0.178 16
842.095 220.613 0.205 16
841.855 220.652 0.230 16
841.534 220.732 0.242 32
841.254 220.851 0.260 32
840.933 221.011 0.271 48
840.613 221.170 0.278 48
840.252 221.329 0.284 64
839.891 221.528 0.293 64
839.531 221.727 0.305 81
839.170 221.966 0.314 81
838.850 222.205 0.323 81
838.449 222.444 0.331 97
838.169 222.643 0.340 97
837.848 222.802 0.352 97
837.568 223.001 0.361 113
837.327 223.160 0.367 129
837.047 223.320 0.371 129
836.806 223.479 0.376 129
836.566 223.638 0.379 145
836.285 223.837 0.384 161
836.005 223.996 0.385 161
835.725 224.235 0.389 161
835.404 224.514 0.392 177
835.083 224.753 0.392 177
834.803 224.992 0.394 194
834.523 225.270 0.395 194
834.282 225.509 0.395 210
834.002 225.708 0.396 210
833.801 225.907 0.397 210
833.601 226.066 0.397 226
833.441 226.265 0.402 226
833.281 226.425 0.404 242
833.080 226.624 0.407 242
832.920 226.823 0.412 242
832.679 227.062 0.417 258
832.479 227.261 0.420 274
832.279 227.499 0.426 274
832.038 227.738 0.427 274
831.838 228.017 0.430 290
831.598 228.335 0.431 290
831.317 228.614 0.432 290
831.077 228.972 0.433 307
830.796 229.331 0.434 323
830.516 229.649 0.433 323
830.195 229.928 0.435 323
829.955 230.246 0.437 339
829.755 230.485 0.439 355
829.514 230.724 0.444 355
829.354 230.923 0.449 355
829.154 231.122 0.455 371
828.993 231.281 0.463 371
828.833 231.520 0.467 371
828.673 231.719 0.471 388
828.472 231.958 0.473 388
828.272 232.157 0.473 405
828.072 232.396 0.475 405
827.871 232.635 0.476 421
827.671 232.874 0.476 421
827.431 233.152 0.478 437
827.270 233.391 0.480 437
827.110 233.590 0.481 437
826.990 233.869 0.484 453
826.870 234.068 0.486 453
826.790 234.267 0.487 453
826.669 234.426 0.489 469
826.589 234.585 0.489 486
826.469 234.745 0.490 486
826.389 234.904 0.492 486
826.309 235.103 0.492 502
826.189 235.262 0.493 518
826.109 235.421 0.495 518
825.988 235.581 0.496 518
825.908 235.740 0.498 534
825.788 235.899 0.500 534
825.708 236.098 0.500 534
825.628 236.257 0.502 550
825.508 236.417 0.502 566
825.427 236.576 0.502 566
825.347 236.695 0.504 566
825.267 236.854 0.503 583
825.187 236.974 0.503 583
825.147 237.093 0.505 599
825.067 237.173 0.504 599
825.027 237.292 0.505 615
824.987 237.412 0.505 615
824.947 237.531 0.505 615
824.906 237.651 0.506 631
824.866 237.730 0.508 631
824.826 237.889 0.507 647
824.826 238.009 0.509 647
824.786 238.128 0.510 647
824.746 238.248 0.510 664
824.746 238.407 0.510 680
824.746 238.526 0.510 680
824.706 238.646 0.511 680
824.706 238.765 0.512 696
824.706 238.885 0.511 696
824.706 239.004 0.511 712
824.706 239.084 0.512 712
824.706 239.163 0.511 728
824.706 239.243 0.512 728
824.706 239.323 0.513 728
824.706 239.402 0.513 744
824.706 239.482 0.514 744
824.706 239.561 0.515 760
824.706 239.641 0.515 760
824.706 239.760 0.516 776
824.706 239.880 0.516 776
824.706 239.999 0.516 792
824.706 240.119 0.517 792
824.746 240.278 0.517 792
824.826 240.437 0.516 809
824.866 240.636 0.517 809
824.947 240.795 0.516 809
825.027 240.955 0.517 825
825.107 241.114 0.517 841
825.187 241.273 0.517 841
825.267 241.393 0.517 841
825.347 241.512 0.518 857
825.427 241.671 0.517 874
825.548 241.791 0.518 874
825.628 241.910 0.518 874
825.708 242.029 0.517 890
825.788 242.149 0.518 890
825.908 242.268 0.518 906
825.988 242.388 0.518 906
826.109 242.507 0.519 906
826.229 242.587 0.518 922
826.349 242.706 0.519 922
826.469 242.865 0.519 938
826.589 242.985 0.518 938
826.710 243.104 0.519 954
826.830 243.264 0.520 954
826.910 243.383 0.519 954
827.070 243.463 0.520 970
827.150 243.582 0.520 987
827.270 243.701 0.519 987
827.431 243.821 0.521 987
827.591 243.940 0.521 1003
827.791 244.060 0.520 1003
827.992 244.179 0.521 1003
828.152 244.299 0.520 1019
828.352 244.418 0.520 1035
828.553 244.537 0.521 1035
828.753 244.657 0.520 1035
828.993 244.736 0.520 1051
829.234 244.856 0.521 1067
829.474 244.936 0.520 1067
829.715 245.015 0.521 1067
829.955 245.135 0.521 1084
830.195 245.214 0.522 1084
830.436 245.334 0.524 1084
830.716 245.413 0.525 1100
830.957 245.493 0.526 1100
831.197 245.612 0.528 1116
831.477 245.692 0.528 1116
831.758 245.811 0.528 1132
832.038 245.891 0.530 1132
832.319 246.010 0.529 1148
832.599 246.090 0.530 1148
832.920 246.170 0.530 1148
833.200 246.249 0.530 1164
833.481 246.329 0.530 1164
833.761 246.369 0.531 1164
834.042 246.408 0.531 1181
834.362 246.448 0.531 1197
834.683 246.448 0.532 1197
835.003 246.448 0.533 1197
835.364 246.448 0.536 1213
835.685 246.448 0.537 1229
836.085 246.448 0.539 1229
836.446 246.448 0.542 1229
836.846 246.448 0.542 1245
837.207 246.448 0.543 1245
837.568 246.448 0.544 1245
837.928 246.528 0.543 1261
838.289 246.528 0.544 1278
838.690 246.607 0.545 1278
839.090 246.647 0.545 1278
839.451 246.687 0.546 1294
839.932 246.687 0.548 1294
840.332 246.687 0.549 1310
840.773 246.687 0.554 1310
841.254 246.687 0.556 1327
841.694 246.687 0.560 1327
842.135 246.687 0.564 1327
842.576 246.687 0.566 1343
843.017 246.687 0.569 1343
843.457 246.687 0.572 1359
843.858 246.687 0.572 1359
844.219 246.687 0.575 1359
844.619 246.687 0.577 1375
844.980 246.687 0.578 1391
845.381 246.647 0.580 1391
845.781 246.568 0.581 1391
846.182 246.488 0.582 1407
846.583 246.369 0.584 1407
847.023 246.249 0.585 1407
847.384 246.130 0.586 1423
847.785 246.010 0.587 1439
848.145 245.891 0.587 1439
848.506 245.732 0.588 1439
848.866 245.612 0.590 1455
849.227 245.453 0.590 1472
849.548 245.334 0.591 1472
849.948 245.174 0.592 1472
850.269 245.055 0.591 1488
850.629 244.896 0.593 1488
850.990 244.697 0.594 1488
851.391 244.537 0.593 1504
851.791 244.338 0.594 1504
852.192 244.139 0.594 1520
852.633 243.940 0.594 1520
853.114 243.701 0.595 1536
853.554 243.502 0.595 1536
853.955 243.303 0.595 1552
854.356 243.104 0.596 1552
854.756 242.865 0.595 1552
855.117 242.706 0.595 1569
855.518 242.428 0.596 1569
855.878 242.229 0.595 1569
856.239 242.029 0.596 1585
856.599 241.830 0.597 1601
856.920 241.592 0.595 1601
857.240 241.393 0.596 1601
857.561 241.194 0.597 1617
857.881 241.034 0.596 1633
858.162 240.835 0.597 1633
858.442 240.636 0.597 1633
858.723 240.477 0.596 1649
859.003 240.278 0.598 1649
859.324 240.079 0.597 1666
859.604 239.880 0.596 1666
859.885 239.681 0.598 1682
860.165 239.482 0.597 1682
860.486 239.243 0.597 1682
860.766 239.044 0.598 1698
861.047 238.845 0.597 1698
861.327 238.606 0.598 1714
861.568 238.407 0.598 1714
861.808 238.248 0.597 1714
862.048 238.049 0.598 1730
862.289 237.889 0.599 1747
862.489 237.690 0.597 1747
862.689 237.491 0.599 1747
862.890 237.292 0.599 1763
863.090 237.093 0.598 1763
863.291 236.894 0.599 1763
863.531 236.695 0.598 1779
863.731 236.456 0.599 1795
863.972 236.217 0.599 1795
864.212 235.939 0.599 1795
864.412 235.700 0.600 1811
864.653 235.342 0.601 1827
864.933 235.063 0.600 1827
865.214 234.784 0.600 1827
865.454 234.506 0.601 1844
865.695 234.267 0.600 1844
865.895 234.028 0.601 1844
866.095 233.789 0.601 1860
866.295 233.590 0.601 1860
866.456 233.391 0.603 1876
866.616 233.192 0.603 1876
866.776 232.953 0.602 1892
866.937 232.754 0.603 1892
867.097 232.475 0.603 1908
867.297 232.237 0.604 1908
867.497 231.958 0.605 1908
867.698 231.679 0.605 1925
867.898 231.361 0.606 1925
868.058 231.082 0.607 1925
868.219 230.764 0.606 1941
868.339 230.445 0.608 1957
868.459 230.087 0.608 1957
868.539 229.769 0.608 1957
868.659 229.410 0.610 1973
868.740 229.012 0.610 1989
868.860 228.654 0.611 1989
868.940 228.216 0.613 1989
869.060 227.898 0.613 2005
869.180 227.539 0.614 2005
869.341 227.261 0.615 2005
869.421 226.982 0.614 2021
869.461 226.743 0.617 2037
869.501 226.504 0.618 2037
869.541 226.305 0.618 2037
869.541 226.106 0.620 2054
869.541 225.947 0.621 2054
869.541 225.788 0.621 2070
869.541 225.628 0.623 2070
869.541 225.469 0.624 2070
869.541 225.310 0.624 2086
869.541 225.111 0.626 2086
869.541 224.872 0.627 2102
869.541 224.673 0.628 2102
869.541 224.514 0.630 2118
869.541 224.315 0.630 2118
869.541 224.116 0.630 2118
869.501 223.877 0.632 2134
869.421 223.678 0.632 2151
869.381 223.479 0.634 2151
869.300 223.280 0.635 2151
869.220 223.121 0.634 2167
869.140 222.961 0.636 2183
869.060 222.802 0.636 2183
869.020 222.683 0.635 2183
868.940 222.523 0.637 2199
868.860 222.364 0.637 2199
868.780 222.205 0.638 2199
868.700 222.046 0.639 2215
868.579 221.926 0.639 2215
868.499 221.767 0.640 2231
868.379 221.568 0.641 2231
868.259 221.449 0.640 2247
868.139 221.289 0.642 2247
867.978 221.210 0.642 2264
867.818 221.090 0.641 2264
867.658 221.011 0.642 2264
867.457 220.931 0.641 2280
867.257 220.851 0.642 2280
867.017 220.772 0.643 2296
866.816 220.732 0.642 2296
866.616 220.652 0.642 2312
866.416 220.613 0.644 2312
866.215 220.573 0.643 2312
866.015 220.493 0.644 2328
865.855 220.453 0.644 2345
865.695 220.374 0.643 2345
865.534 220.334 0.644 2345
865.334 220.294 0.645 2361
865.174 220.294 0.644 2361
865.013 220.294 0.644 2361
864.813 220.294 0.642 2377
864.653 220.294 0.641 2393
864.452 220.294 0.642 2393
864.212 220.294 0.641 2393
864.012 220.294 0.641 2409
863.771 220.294 0.642 2409
863.571 220.374 0.641 2426
863.291 220.453 0.642 2426
863.050 220.533 0.642 2442
862.810 220.613 0.642 2442
862.569 220.692 0.642 2442
862.289 220.772 0.643 2458
862.008 220.851 0.642 2458
861.728 220.971 0.643 2474
861.447 221.051 0.643 2474
861.167 221.210 0.641 2474
860.927 221.329 0.642 2490
860.646 221.488 0.642 2506
860.406 221.648 0.641 2506
860.125 221.807 0.642 2506
859.885 222.046 0.641 2522
859.684 222.205 0.640 2522
859.444 222.404 0.641 2522
859.244 222.603 0.640 2538
859.003 222.762 0.640 2554
858.803 222.961 0.642 2554
858.563 223.160 0.640 2554
858.322 223.320 0.641 2571
858.082 223.519 0.641 2587
857.841 223.718 0.640 2587
857.641 223.917 0.642 2587
857.401 224.116 0.641 2603
857.160 224.355 0.640 2603
856.960 224.554 0.641 2603
856.760 224.753 0.641 2619
856.559 224.912 0.641 2635
856.359 225.111 0.641 2635
856.159 225.310 0.641 2635
855.958 225.509 0.641 2651
855.758 225.748 0.641 2651
855.518 225.987 0.640 2667
855.317 226.226 0.641 2667
855.117 226.504 0.642 2667
854.876 226.743 0.640 2684
854.676 227.022 0.641 2684
854.476 227.221 0.641 2700
854.276 227.420 0.641 2700
854.115 227.619 0.642 2716
853.955 227.778 0.641 2716
853.835 227.977 0.641 2716
853.674 228.136 0.642 2732
853.514 228.296 0.642 2748
853.394 228.455 0.642 2748
853.274 228.654 0.643 2748
853.114 228.893 0.642 2764
852.953 229.132 0.642 2781
852.793 229.370 0.643 2781
852.593 229.649 0.642 2781
852.432 229.888 0.643 2797
852.232 230.167 0.643 2797
852.032 230.405 0.642 2797
851.871 230.644 0.643 2813
851.751 230.843 0.643 2813
851.631 231.042 0.642 2829
851.511 231.281 0.644 2829
851.391 231.440 0.643 2845
851.310 231.640 0.643 2845
851.230 231.799 0.644 2861
851.110 231.958 0.643 2861
851.030 232.117 0.643 2861
850.910 232.276 0.644 2877
850.830 232.436 0.643 2877
850.709 232.595 0.643 2877
850.629 232.794 0.644 2894
850.549 232.953 0.643 2910
850.429 233.152 0.644 2910
850.389 233.311 0.644 2910
850.269 233.550 0.643 2926
850.189 233.749 0.644 2942
850.068 233.909 0.644 2942
849.948 234.108 0.644 2942
849.828 234.307 0.645 2958
849.708 234.466 0.644 2958
849.628 234.665 0.644 2958
849.548 234.824 0.645 2974
849.427 234.983 0.644 2991
849.347 235.143 0.645 2991
849.227 235.302 0.646 2991
849.107 235.461 0.644 3007
849.027 235.620 0.645 3007
848.906 235.819 0.646 3023
848.826 235.979 0.644 3023
848.746 236.098 0.647 3023
848.666 236.257 0.646 3039
848.586 236.417 0.645 3039
848.546 236.576 0.646 3055
848.466 236.735 0.646 3055
848.386 236.934 0.645 3071
848.305 237.133 0.647 3071
848.265 237.292 0.646 3071
848.185 237.491 0.647 3087
848.105 237.690 0.648 3103
848.025 237.850 0.646 3103
847.945 237.969 0.647 3103
847.865 238.168 0.648 3120
847.785 238.288 0.647 3120
847.705 238.447 0.648 3120
847.584 238.606 0.648 3136
847.544 238.725 0.647 3152
847.464 238.885 0.649 3152
847.424 239.004 0.648 3152
847.344 239.163 0.648 3168
847.304 239.323 0.649 3184
847.224 239.482 0.648 3184
847.184 239.641 0.648 3184
847.104 239.800 0.649 3200
847.063 239.959 0.648 3200
847.023 240.119 0.649 3200
846.983 240.318 0.649 3217
846.943 240.477 0.648 3217
846.903 240.676 0.649 3233
846.863 240.835 0.649 3233
846.823 240.994 0.648 3249
846.783 241.114 0.649 3249
846.743 241.273 0.649 3265
846.743 241.432 0.648 3265
846.703 241.592 0.650 3265
846.663 241.711 0.649 3281
846.623 241.830 0.649 3281
846.623 241.990 0.650 3281
846.623 242.109 0.649 3297
846.583 242.229 0.650 3313
846.583 242.348 0.650 3313
846.543 242.507 0.649 3313
846.543 242.666 0.650 3330
846.503 242.786 0.650 3346
846.503 242.945 0.649 3346
846.462 243.065 0.650 3346
846.462 243.184 0.650 3362
846.462 243.303 0.649 3362
846.462 243.423 0.651 3362
846.422 243.542 0.650 3378
846.382 243.701 0.650 3394
846.382 243.861 0.652 3394
846.342 243.980 0.651 3394
846.302 244.179 0.652 3410
846.302 244.338 0.653 3410
846.302 244.498 0.652 3427
846.302 244.657 0.653 3427
846.302 244.856 0.654 3427
846.302 245.055 0.653 3443
846.262 245.254 0.654 3459
846.262 245.413 0.654 3459
846.262 245.612 0.653 3459
846.262 245.771 0.655 3475
846.262 245.971 0.655 3475
846.262 246.170 0.654 3475
846.262 246.329 0.655 3491
846.262 246.488 0.655 3507
846.262 246.647 0.655 3507
846.262 246.846 0.657 3507
846.262 247.005 0.657 3523
846.262 247.205 0.658 3540
846.262 247.404 0.659 3540
846.262 247.563 0.658 3540
846.262 247.762 0.660 3556
846.262 247.961 0.661 3556
846.262 248.120 0.660 3556
846.302 248.319 0.661 3572
846.302 248.518 0.661 3572
846.382 248.677 0.660 3588
846.422 248.837 0.662 3588
846.462 248.996 0.661 3604
846.503 249.155 0.661 3604
846.583 249.314 0.663 3620
846.623 249.513 0.662 3620
846.703 249.673 0.663 3620
846.743 249.832 0.665 3637
846.783 249.991 0.664 3637
846.863 250.150 0.665 3637
846.903 250.310 0.665 3653
846.983 250.469 0.665 3669
847.023 250.628 0.666 3669
847.104 250.787 0.666 3669
847.184 250.947 0.666 3685
847.264 251.106 0.668 3701
847.304 251.265 0.667 3701
847.384 251.384 0.667 3701
847.464 251.544 0.669 3718
847.544 251.703 0.669 3718
847.584 251.862 0.669 3734
847.664 251.982 0.672 3734
847.745 252.141 0.671 3734
847.825 252.260 0.673 3750
847.905 252.419 0.674 3750
847.985 252.539 0.673 3766
848.065 252.698 0.674 3766
848.145 252.857 0.674 3782
848.225 253.017 0.674 3782
848.305 253.176 0.675 3782
848.426 253.295 0.674 3798
848.546 253.454 0.674 3815
848.626 253.534 0.675 3815
848.786 253.654 0.675 3815
848.906 253.773 0.674 3831
849.027 253.853 0.676 3831
849.187 253.972 0.675 3831
849.387 254.131 0.676 3847
849.548 254.251 0.677 3865
849.668 254.410 0.676 3866
849.788 254.529 0.677 3866
849.908 254.649 0.678 3866
850.028 254.768 0.677 3881
850.149 254.927 0.679 3897
850.269 255.087 0.679 3897
850.389 255.206 0.678 3897
850.509 255.405 0.680 3913
850.629 255.525 0.679 3929
850.750 255.684 0.679 3929
850.870 255.803 0.680 3929
851.030 255.923 0.680 3945
851.190 256.042 0.680 3945
851.351 256.122 0.681 3961
851.551 256.201 0.681 3961
851.751 256.241 0.683 3961
851.952 256.361 0.686 3977
852.192 256.440 0.688 3977
852.432 256.520 0.693 3994
852.633 256.599 0.696 3994
852.873 256.679 0.696 4010
853.073 256.759 0.699 4010
853.314 256.878 0.699 4010
853.554 256.918 0.699 4026
853.755 256.997 0.701 4042
854.075 257.077 0.701 4042
854.316 257.157 0.702 4042
854.556 257.196 0.705 4058
854.796 257.236 0.705 4058
855.077 257.276 0.707 4058
855.317 257.276 0.709 4074
855.558 257.316 0.709 4090
855.798 257.316 0.710 4090
856.038 257.356 0.712 4090
856.239 257.356 0.711 4107
856.479 257.356 0.712 4107
856.680 257.356 0.712 4123
856.880 257.356 0.712 4123
857.080 257.356 0.714 4123
857.321 257.356 0.714 4139
857.521 257.356 0.714 4155
857.761 257.316 0.717 4155
857.922 257.236 0.716 4155
858.082 257.157 0.717 4171
858.202 257.077 0.718 4171
858.322 256.958 0.717 4171
858.442 256.838 0.720 4187
858.563 256.719 0.721 4203
858.683 256.560 0.721 4203
858.803 256.400 0.723 4203
858.923 256.241 0.724 4219
859.083 256.002 0.723 4236
859.204 255.803 0.724 4236
859.324 255.604 0.724 4236
859.444 255.405 0.724 4252
859.564 255.206 0.725 4252
859.644 255.047 0.725 4252
859.684 254.888 0.725 4268
859.725 254.728 0.727 4268
859.765 254.569 0.726 4284
859.765 254.450 0.727 4284
859.765 254.330 0.729 4284
859.765 254.171 0.728 4300
859.765 254.012 0.729 4316
859.765 253.853 0.731 4316
859.725 253.733 0.730 4316
859.604 253.614 0.732 4332
859.444 253.494 0.732 4349
859.284 253.375 0.732 4349
859.124 253.255 0.734 4349
858.963 253.096 0.733 4365
858.763 252.977 0.733 4365
858.563 252.897 0.735 4365
858.322 252.778 0.734 4381
858.122 252.698 0.735 4381
857.922 252.618 0.736 4397
857.721 252.539 0.735 4397
857.521 252.459 0.735 4413
857.321 252.419 0.736 4413
857.120 252.419 0.735 4429
856.920 252.380 0.737 4429
856.680 252.380 0.738 4429
856.479 252.380 0.737 4446
856.239 252.380 0.739 4462
855.958 252.380 0.740 4462
855.758 252.380 0.740 4462
855.518 252.380 0.742 4478
855.277 252.380 0.742 4478
855.037 252.380 0.741 4478
854.796 252.380 0.743 4494
854.596 252.380 0.742 4510
854.396 252.419 0.743 4510
854.155 252.459 0.744 4510
853.955 252.539 0.743 4526
853.795 252.579 0.744 4526
853.594 252.658 0.745 4542
853.394 252.738 0.744 4542
853.194 252.857 0.745 4558
853.033 252.937 0.744 4558
852.833 253.056 0.743 4558
852.593 253.136 0.745 4575
852.392 253.255 0.745 4575
852.232 253.335 0.744 4591
852.032 253.375 0.746 4591
851.871 253.454 0.745 4591
851.711 253.534 0.745 4607
851.551 253.574 0.746 4623
851.391 253.614 0.745 4623
851.230 253.693 0.746 4623
851.110 253.733 0.747 4639
850.910 253.773 0.746 4639
850.750 253.853 0.746 4639
850.549 253.932 0.746 4655
850.389 254.052 0.746 4672
850.189 254.131 0.747 4672
850.028 254.251 0.746 4672
849.828 254.330 0.746 4688
849.668 254.410 0.747 4704
849.467 254.490 0.746 4704
849.227 254.569 0.746 4704
849.067 254.649 0.747 4720
848.906 254.689 0.746 4720
848.746 254.768 0.747 4720
848.546 254.848 0.747 4736
848.386 254.927 0.746 4753
848.225 255.007 0.747 4753
848.065 255.126 0.748 4753
847.905 255.206 0.746 4769
847.745 255.286 0.747 4769
847.584 255.405 0.746 4785
847.464 255.485 0.745 4785
847.304 255.604 0.747 4785
847.184 255.684 0.746 4801
847.063 255.803 0.745 4801
846.903 255.883 0.747 4817
846.823 256.002 0.746 4817
846.663 256.082 0.746 4833
846.543 256.201 0.747 4833
846.422 256.281 0.746 4833
846.222 256.440 0.746 4849
846.062 256.560 0.747 4866
845.901 256.639 0.746 4866
845.741 256.759 0.747 4866
845.621 256.838 0.747 4882
845.461 256.958 0.746 4882
845.341 257.037 0.748 4882
845.260 257.117 0.747 4898
845.140 257.196 0.746 4914
845.020 257.276 0.747 4914
844.900 257.356 0.747 4914
844.820 257.475 0.746 4930
844.740 257.555 0.748 4930
844.619 257.674 0.746 4946
844.539 257.794 0.747 4946
844.419 257.873 0.747 4962
844.339 257.993 0.746 4962
844.219 258.072 0.746 4962
844.099 258.152 0.747 4978
844.018 258.271 0.746 4978
843.938 258.351 0.747 4995
843.818 258.470 0.747 4995
843.738 258.590 0.746 5011
843.658 258.749 0.747 5011
843.538 258.829 0.746 5027
843.417 258.948 0.746 5027
843.297 259.107 0.747 5027
843.217 259.227 0.746 5043
843.097 259.346 0.746 5059
843.017 259.505 0.747 5059
842.896 259.665 0.745 5059
842.776 259.784 0.746 5075
842.656 259.943 0.747 5075
842.536 260.063 0.746 5075
842.416 260.222 0.747 5091
