% x_coordinate y_coordinate pressure time
% shape 0, 632 points
700.619 395.172 0.045 0
700.699 395.172 0.093 0
700.740 395.132 0.129 0
700.820 395.132 0.165 16
700.900 395.053 0.198 16
700.980 395.013 0.232 33
701.100 394.933 0.261 33
701.220 394.854 0.285 49
701.341 394.814 0.304 49
701.501 394.734 0.319 49
701.661 394.694 0.328 65
701.821 394.615 0.335 65
702.022 394.535 0.340 81
702.222 394.456 0.346 81
702.462 394.336 0.352 97
702.783 394.296 0.360 97
703.104 394.097 0.367 97
703.504 393.859 0.370 113
703.945 393.580 0.374 129
704.426 393.261 0.376 129
704.947 392.983 0.378 129
705.467 392.664 0.379 146
705.988 392.425 0.379 146
706.549 392.186 0.380 146
706.990 391.987 0.380 162
707.391 391.828 0.380 178
707.751 391.629 0.380 178
708.112 391.470 0.380 178
708.472 391.311 0.380 194
708.833 391.032 0.380 210
709.154 390.793 0.381 210
709.554 390.554 0.381 210
709.955 390.276 0.381 226
710.315 390.037 0.382 226
710.676 389.798 0.382 226
710.957 389.599 0.382 242
711.277 389.440 0.382 242
711.598 389.280 0.382 259
711.878 389.161 0.382 259
712.199 389.042 0.382 275
712.479 388.882 0.382 275
712.880 388.723 0.382 291
713.200 388.564 0.382 291
713.561 388.365 0.382 291
713.962 388.206 0.382 307
714.362 387.967 0.383 307
714.803 387.768 0.384 323
715.204 387.529 0.386 323
715.644 387.330 0.389 339
716.085 387.091 0.393 339
716.526 386.852 0.399 339
716.886 386.613 0.404 355
717.287 386.414 0.412 371
717.648 386.215 0.418 371
718.048 386.056 0.424 371
718.449 385.897 0.429 387
718.770 385.738 0.433 387
719.170 385.618 0.437 387
719.571 385.459 0.441 404
719.932 385.300 0.444 420
720.292 385.140 0.447 420
720.613 384.981 0.451 420
720.973 384.782 0.457 436
721.334 384.583 0.461 436
721.694 384.424 0.467 452
722.015 384.225 0.473 452
722.336 384.026 0.479 468
722.696 383.787 0.485 468
722.977 383.588 0.490 484
723.297 383.389 0.496 484
723.578 383.190 0.500 484
723.858 382.991 0.505 500
724.139 382.792 0.510 500
724.419 382.593 0.514 500
724.700 382.394 0.516 516
724.980 382.234 0.519 532
725.260 382.035 0.521 532
725.541 381.876 0.522 532
725.781 381.717 0.523 549
726.062 381.518 0.524 565
726.302 381.398 0.524 565
726.583 381.239 0.525 565
726.823 381.120 0.526 581
727.104 380.961 0.527 581
727.384 380.801 0.528 597
727.624 380.602 0.530 597
727.865 380.443 0.532 597
728.105 380.244 0.534 613
728.346 380.045 0.535 613
728.626 379.846 0.538 629
728.866 379.647 0.539 629
729.107 379.448 0.539 646
729.347 379.249 0.540 646
729.588 379.010 0.541 646
729.788 378.771 0.541 662
730.028 378.572 0.542 678
730.269 378.333 0.542 678
730.509 378.134 0.543 678
730.790 377.895 0.543 695
731.030 377.656 0.543 695
731.270 377.457 0.544 695
731.551 377.258 0.545 711
731.751 377.059 0.546 727
731.952 376.900 0.547 727
732.152 376.661 0.548 727
732.352 376.502 0.549 743
732.553 376.343 0.549 743
732.713 376.144 0.550 760
732.873 375.985 0.550 760
733.033 375.786 0.552 760
733.234 375.586 0.551 776
733.394 375.427 0.552 792
733.594 375.188 0.552 792
733.795 374.989 0.552 792
733.995 374.790 0.553 808
734.195 374.551 0.553 808
734.436 374.313 0.553 808
734.636 374.074 0.554 824
734.796 373.875 0.554 840
734.957 373.676 0.554 840
735.117 373.477 0.554 840
735.277 373.317 0.554 857
735.437 373.158 0.555 873
735.558 372.999 0.555 873
735.678 372.840 0.556 873
735.838 372.680 0.556 889
735.998 372.521 0.557 889
736.119 372.322 0.557 889
736.279 372.163 0.558 905
736.399 371.884 0.557 905
736.559 371.685 0.558 921
736.720 371.486 0.558 921
736.840 371.247 0.558 937
737.040 371.048 0.559 937
737.160 370.849 0.559 954
737.280 370.650 0.560 954
737.401 370.451 0.560 954
737.481 370.292 0.561 970
737.561 370.093 0.561 970
737.641 369.934 0.561 970
737.721 369.774 0.561 986
737.841 369.536 0.562 1002
737.922 369.376 0.563 1002
737.962 369.177 0.565 1002
738.042 369.018 0.567 1018
738.122 368.819 0.570 1034
738.202 368.620 0.572 1034
738.282 368.461 0.575 1034
738.322 368.262 0.576 1051
738.402 368.102 0.578 1051
738.442 367.903 0.580 1051
738.482 367.744 0.581 1067
738.523 367.545 0.582 1083
738.563 367.386 0.584 1083
738.603 367.147 0.585 1083
738.643 366.908 0.585 1099
738.683 366.709 0.586 1099
738.723 366.510 0.587 1115
738.763 366.311 0.588 1115
738.803 366.112 0.589 1131
738.843 365.953 0.592 1131
738.883 365.754 0.593 1131
738.923 365.594 0.594 1147
738.923 365.475 0.595 1147
738.963 365.356 0.596 1163
738.963 365.236 0.597 1163
738.963 365.157 0.597 1179
738.963 365.077 0.597 1179
738.963 364.997 0.598 1196
738.963 364.958 0.598 1196
738.963 364.878 0.599 1196
738.963 364.759 0.599 1212
738.963 364.719 0.600 1212
738.963 364.599 0.600 1212
738.963 364.520 0.601 1228
738.963 364.400 0.601 1244
738.923 364.281 0.601 1244
738.923 364.161 0.602 1244
738.883 364.042 0.602 1261
738.843 363.923 0.604 1277
738.803 363.803 0.605 1277
738.763 363.724 0.606 1277
738.723 363.604 0.607 1293
738.643 363.525 0.608 1293
738.563 363.445 0.609 1293
738.482 363.365 0.610 1309
738.442 363.286 0.611 1325
738.362 363.206 0.612 1325
738.242 363.126 0.612 1325
738.162 363.047 0.612 1341
738.082 362.927 0.612 1341
737.962 362.888 0.613 1358
737.881 362.768 0.612 1358
737.841 362.689 0.612 1374
737.761 362.609 0.613 1374
737.681 362.529 0.613 1374
737.641 362.410 0.613 1390
737.561 362.330 0.613 1390
737.481 362.211 0.613 1406
737.361 362.131 0.614 1406
737.280 362.052 0.614 1406
737.200 361.972 0.614 1422
737.120 361.892 0.614 1438
737.000 361.813 0.614 1438
736.920 361.733 0.614 1438
736.840 361.654 0.614 1454
736.720 361.574 0.614 1454
736.599 361.534 0.615 1454
736.519 361.454 0.614 1470
736.399 361.375 0.614 1487
736.239 361.295 0.615 1487
736.119 361.255 0.614 1487
735.958 361.216 0.614 1503
735.798 361.176 0.615 1519
735.678 361.136 0.614 1519
735.518 361.096 0.615 1519
735.397 361.017 0.615 1535
735.237 360.977 0.615 1535
735.117 360.937 0.616 1535
734.957 360.897 0.616 1551
734.836 360.857 0.615 1551
734.676 360.818 0.616 1567
734.516 360.698 0.616 1567
734.316 360.698 0.615 1583
734.155 360.698 0.615 1583
733.995 360.698 0.615 1599
733.835 360.698 0.615 1599
733.674 360.738 0.615 1599
733.474 360.778 0.614 1616
733.354 360.778 0.614 1616
733.194 360.818 0.615 1616
733.073 360.857 0.615 1632
732.953 360.897 0.615 1648
732.793 360.937 0.616 1648
732.673 361.017 0.615 1648
732.513 361.056 0.614 1664
732.392 361.136 0.614 1680
732.232 361.216 0.614 1680
732.072 361.255 0.614 1680
731.912 361.335 0.614 1696
731.791 361.415 0.614 1696
731.671 361.494 0.615 1696
731.551 361.534 0.615 1713
731.431 361.614 0.615 1729
731.270 361.693 0.615 1729
731.150 361.813 0.615 1729
731.030 361.892 0.614 1745
730.910 362.012 0.615 1745
730.790 362.091 0.614 1761
730.669 362.211 0.614 1761
730.549 362.290 0.615 1777
730.429 362.410 0.614 1777
730.309 362.569 0.615 1777
730.189 362.649 0.614 1793
730.109 362.728 0.614 1793
729.988 362.848 0.615 1809
729.868 362.967 0.614 1809
729.788 363.087 0.614 1809
729.668 363.206 0.615 1826
729.588 363.326 0.614 1842
729.467 363.326 0.614 1842
729.387 363.445 0.614 1842
729.267 363.564 0.614 1858
729.147 363.724 0.614 1858
729.067 363.883 0.614 1858
728.906 364.082 0.614 1874
728.786 364.241 0.614 1890
728.666 364.440 0.615 1890
728.546 364.639 0.615 1890
728.386 364.798 0.615 1906
728.265 364.997 0.615 1923
728.145 365.157 0.614 1923
728.065 365.316 0.615 1923
727.945 365.515 0.614 1939
727.865 365.634 0.614 1939
727.745 365.754 0.615 1955
727.624 365.873 0.615 1955
727.544 365.993 0.614 1955
727.424 366.152 0.615 1971
727.344 366.311 0.614 1971
727.264 366.470 0.614 1987
727.144 366.630 0.614 1987
727.063 366.829 0.614 2003
726.943 367.028 0.614 2003
726.823 367.187 0.615 2003
726.703 367.426 0.614 2019
726.623 367.585 0.615 2036
726.503 367.784 0.614 2036
726.342 367.983 0.614 2036
726.222 368.182 0.615 2052
726.102 368.381 0.614 2052
726.022 368.580 0.615 2052
725.901 368.819 0.615 2068
725.781 369.018 0.614 2084
725.701 369.257 0.614 2084
725.621 369.496 0.614 2084
725.581 369.774 0.614 2100
725.501 369.973 0.614 2100
725.381 370.212 0.614 2116
725.301 370.411 0.614 2116
725.220 370.650 0.614 2116
725.140 370.849 0.614 2133
725.020 371.048 0.614 2149
724.940 371.247 0.614 2149
724.860 371.446 0.614 2149
724.780 371.645 0.614 2165
724.740 371.844 0.614 2165
724.659 372.083 0.614 2165
724.619 372.243 0.614 2181
724.539 372.442 0.614 2197
724.499 372.601 0.614 2197
724.419 372.800 0.614 2197
724.339 372.999 0.614 2213
724.259 373.158 0.614 2230
724.179 373.357 0.614 2230
724.058 373.556 0.614 2230
723.978 373.755 0.614 2246
723.898 373.954 0.614 2246
723.778 374.153 0.614 2246
723.698 374.352 0.614 2262
723.658 374.591 0.614 2262
723.578 374.790 0.614 2278
723.497 374.989 0.614 2278
723.457 375.188 0.614 2294
723.337 375.387 0.614 2294
723.297 375.547 0.614 2310
723.257 375.786 0.614 2310
723.177 375.985 0.614 2310
723.137 376.144 0.614 2326
723.057 376.343 0.614 2326
723.017 376.502 0.614 2342
722.977 376.661 0.614 2342
722.896 376.781 0.614 2359
722.856 376.980 0.614 2359
722.816 377.099 0.614 2359
722.776 377.258 0.614 2375
722.736 377.418 0.614 2391
722.696 377.577 0.614 2391
722.656 377.736 0.614 2391
722.616 377.895 0.614 2407
722.576 378.015 0.614 2407
722.536 378.174 0.614 2407
722.496 378.333 0.614 2423
722.416 378.492 0.614 2439
722.376 378.652 0.614 2439
722.336 378.771 0.614 2439
722.296 378.930 0.614 2455
722.255 379.090 0.614 2472
722.215 379.289 0.614 2472
722.175 379.408 0.614 2472
722.135 379.527 0.614 2488
722.095 379.687 0.615 2488
722.015 379.806 0.614 2488
721.975 379.965 0.614 2504
721.935 380.085 0.614 2504
721.935 380.244 0.614 2520
721.895 380.403 0.614 2520
721.855 380.523 0.614 2520
721.815 380.642 0.614 2536
721.775 380.722 0.614 2552
721.775 380.841 0.614 2552
721.735 380.961 0.613 2552
721.735 381.080 0.614 2568
721.694 381.199 0.614 2568
721.694 381.319 0.614 2568
721.694 381.438 0.614 2585
721.614 381.558 0.614 2601
721.614 381.717 0.614 2601
721.574 381.836 0.614 2601
721.574 381.956 0.614 2617
721.534 382.075 0.614 2633
721.534 382.195 0.614 2633
721.534 382.274 0.614 2633
721.534 382.394 0.613 2649
721.494 382.513 0.613 2649
721.494 382.593 0.613 2649
721.494 382.712 0.613 2665
721.454 382.832 0.614 2682
721.454 382.991 0.613 2682
721.414 383.110 0.613 2682
721.414 383.230 0.614 2698
721.374 383.349 0.614 2698
721.374 383.468 0.614 2714
721.334 383.588 0.614 2714
721.294 383.707 0.614 2714
721.254 383.827 0.614 2730
721.214 383.986 0.614 2730
721.134 384.066 0.614 2746
721.094 384.185 0.614 2746
721.053 384.304 0.614 2763
721.013 384.424 0.614 2763
720.973 384.543 0.614 2763
720.933 384.663 0.614 2779
720.893 384.782 0.614 2795
720.893 384.902 0.614 2795
720.853 385.061 0.614 2795
720.853 385.140 0.614 2811
720.853 385.260 0.614 2811
720.813 385.379 0.614 2811
720.813 385.459 0.614 2827
720.773 385.578 0.613 2844
720.773 385.658 0.614 2844
720.733 385.777 0.614 2844
720.693 385.857 0.614 2860
720.653 385.937 0.614 2876
720.653 386.056 0.614 2876
720.653 386.136 0.614 2876
720.613 386.215 0.614 2892
720.613 386.375 0.614 2892
720.613 386.454 0.614 2892
720.573 386.534 0.614 2908
720.573 386.653 0.614 2908
720.533 386.733 0.614 2924
720.533 386.852 0.616 2924
720.533 386.972 0.616 2940
720.492 387.051 0.616 2940
720.492 387.171 0.617 2956
720.492 387.250 0.617 2956
720.492 387.370 0.618 2956
720.492 387.449 0.618 2973
720.492 387.569 0.617 2973
720.492 387.688 0.618 2989
720.452 387.768 0.618 2989
720.452 387.887 0.618 3005
720.452 387.967 0.618 3005
720.452 388.086 0.618 3005
720.452 388.166 0.618 3021
720.452 388.285 0.618 3037
720.452 388.405 0.618 3037
720.452 388.484 0.618 3037
720.452 388.604 0.619 3053
720.452 388.683 0.619 3053
720.452 388.843 0.619 3053
720.452 388.922 0.619 3070
720.452 389.002 0.619 3086
720.452 389.081 0.619 3086
720.452 389.161 0.619 3086
720.452 389.241 0.619 3102
720.452 389.280 0.619 3118
720.452 389.360 0.619 3118
720.412 389.440 0.620 3118
720.412 389.519 0.621 3134
720.412 389.599 0.621 3134
720.412 389.639 0.622 3134
720.412 389.718 0.623 3150
720.452 389.798 0.624 3166
720.492 389.838 0.625 3166
720.533 389.917 0.626 3166
720.653 389.997 0.627 3182
720.693 390.037 0.628 3182
720.733 390.117 0.628 3199
720.813 390.196 0.628 3199
720.853 390.276 0.629 3199
720.933 390.395 0.630 3215
721.013 390.475 0.630 3215
721.053 390.554 0.632 3231
721.134 390.634 0.633 3231
721.174 390.714 0.634 3247
721.214 390.793 0.634 3247
721.254 390.833 0.635 3247
721.294 390.913 0.635 3263
721.374 390.992 0.636 3279
721.414 391.032 0.636 3279
721.454 391.151 0.636 3279
721.454 391.231 0.636 3295
721.494 391.271 0.636 3295
721.534 391.351 0.638 3295
721.574 391.390 0.639 3311
721.614 391.430 0.640 3328
721.654 391.510 0.642 3328
721.735 391.550 0.643 3328
721.815 391.589 0.644 3344
721.855 391.669 0.646 3360
721.895 391.709 0.647 3360
722.015 391.788 0.647 3360
722.095 391.828 0.648 3376
722.175 391.908 0.648 3376
722.255 391.948 0.649 3376
722.336 391.987 0.649 3392
722.456 392.067 0.650 3409
722.536 392.107 0.651 3409
722.616 392.186 0.652 3409
722.736 392.266 0.653 3425
722.856 392.346 0.654 3425
722.937 392.425 0.654 3441
723.017 392.505 0.655 3441
723.137 392.585 0.655 3441
723.217 392.664 0.655 3457
723.297 392.744 0.655 3457
723.377 392.784 0.656 3474
723.497 392.823 0.656 3474
723.578 392.903 0.656 3490
723.698 392.903 0.656 3490
723.818 392.943 0.657 3490
723.938 392.943 0.658 3506
724.099 392.983 0.660 3522
724.219 392.983 0.661 3522
724.339 393.022 0.663 3522
724.419 393.022 0.665 3538
724.539 393.062 0.665 3538
724.659 393.102 0.666 3538
724.740 393.142 0.666 3554
724.820 393.182 0.667 3571
724.940 393.222 0.667 3571
725.020 393.261 0.667 3571
725.100 393.261 0.668 3587
725.220 393.301 0.668 3603
725.341 393.341 0.668 3603
725.461 393.500 0.668 3603
725.581 393.500 0.668 3619
725.701 393.500 0.668 3619
725.781 393.500 0.669 3619
725.901 393.421 0.669 3635
725.982 393.421 0.669 3635
726.102 393.421 0.670 3651
726.182 393.421 0.669 3651
726.262 393.500 0.670 3668
726.382 393.500 0.670 3668
726.462 393.540 0.670 3684
726.583 393.540 0.670 3684
726.703 393.540 0.670 3684
726.823 393.540 0.670 3700
726.943 393.540 0.670 3716
727.063 393.540 0.671 3716
727.184 393.540 0.670 3716
727.304 393.540 0.671 3733
727.384 393.540 0.672 3733
727.504 393.500 0.673 3733
727.624 393.500 0.674 3749
727.705 393.500 0.674 3765
727.825 393.500 0.675 3765
727.945 393.500 0.676 3765
728.025 393.500 0.676 3781
728.145 393.500 0.677 3781
728.225 393.500 0.678 3797
728.346 393.500 0.678 3797
728.426 393.500 0.679 3797
728.546 393.500 0.679 3813
728.666 393.500 0.679 3813
728.786 393.500 0.680 3830
728.906 393.500 0.680 3830
729.027 393.460 0.680 3846
729.187 393.381 0.681 3846
729.307 393.381 0.682 3846
729.467 393.341 0.684 3862
729.628 393.301 0.686 3878
729.788 393.222 0.689 3878
729.948 393.222 0.691 3878
730.109 393.182 0.694 3894
730.269 393.142 0.695 3894
730.389 393.102 0.696 3894
730.509 393.102 0.698 3911
730.669 393.102 0.698 3927
730.830 393.102 0.698 3927
730.950 393.102 0.699 3927
731.110 393.102 0.698 3943
731.270 393.102 0.699 3959
731.431 393.062 0.699 3959
731.591 393.062 0.699 3959
731.791 393.022 0.700 3975
731.992 392.983 0.700 3975
732.192 392.943 0.700 3975
732.392 392.863 0.701 3992
732.633 392.823 0.702 3992
732.873 392.704 0.704 4008
733.114 392.624 0.706 4008
733.314 392.505 0.708 4008
733.554 392.425 0.710 4024
733.755 392.306 0.712 4040
733.955 392.226 0.714 4040
734.115 392.147 0.716 4040
734.316 392.067 0.717 4056
734.476 391.987 0.718 4056
734.676 391.908 0.719 4056
734.836 391.828 0.720 4072
735.037 391.749 0.721 4088
735.237 391.669 0.722 4088
735.437 391.550 0.723 4088
735.678 391.470 0.723 4104
735.878 391.351 0.724 4121
736.159 391.231 0.724 4121
736.359 391.112 0.725 4121
736.559 390.952 0.725 4137
736.760 390.873 0.726 4137
736.960 390.753 0.726 4137
737.160 390.634 0.726 4153
737.401 390.515 0.726 4169
737.601 390.395 0.727 4169
737.801 390.276 0.726 4169
738.002 390.156 0.726 4185
738.202 390.037 0.727 4185
738.362 389.957 0.728 4201
738.523 389.838 0.728 4201
738.723 389.718 0.728 4217
738.883 389.639 0.727 4217
739.124 389.519 0.729 4217
739.324 389.400 0.729 4234
739.524 389.280 0.729 4234
739.765 389.280 0.729 4250
740.005 389.121 0.730 4250
740.205 389.002 0.730 4250
740.446 388.843 0.732 4266
740.686 388.683 0.733 4282
740.886 388.484 0.734 4282
741.127 388.325 0.735 4282
741.367 388.166 0.735 4298
741.568 388.046 0.735 4314
741.728 387.927 0.736 4314
741.888 387.808 0.736 4314
742.089 387.688 0.736 4331
742.249 387.609 0.736 4331
742.409 387.489 0.736 4331
742.569 387.370 0.737 4347
742.730 387.290 0.737 4363
742.890 387.171 0.736 4363
743.050 387.051 0.737 4363
743.250 386.932 0.737 4379
743.411 386.812 0.736 4379
743.571 386.693 0.738 4395
743.691 386.574 0.738 4395
743.851 386.414 0.738 4395
744.012 386.295 0.737 4411
744.172 386.175 0.737 4411
744.292 385.976 0.738 4427
744.452 385.857 0.738 4427
744.573 385.777 0.738 4444
744.693 385.698 0.738 4444
744.773 385.698 0.739 4444
744.893 385.658 0.731 4460
745.053 385.777 0.684 4476
745.134 385.817 0.584 4476
745.214 385.937 0.402 4476

