% x_coordinate y_coordinate pressure time
% shape 0, 794 points

754.947 220.850 0.410 274
754.906 220.969 0.413 274
754.786 221.129 0.416 290
754.706 221.248 0.422 290
754.626 221.407 0.430 306
754.506 221.567 0.437 306
754.426 221.726 0.445 306
754.346 221.925 0.451 322
754.265 222.124 0.457 322
754.185 222.402 0.460 339
754.065 222.641 0.463 339
753.945 222.880 0.465 355
753.825 223.159 0.468 355
753.664 223.398 0.469 355
753.584 223.676 0.471 371
753.464 223.955 0.474 387
753.344 224.234 0.476 387
753.224 224.552 0.478 387
753.144 224.791 0.482 404
753.023 225.030 0.485 404
752.943 225.269 0.487 404
752.863 225.508 0.489 420
752.783 225.746 0.490 436
752.663 226.025 0.491 436
752.583 226.264 0.492 436
752.503 226.463 0.492 453
752.462 226.702 0.492 453
752.382 226.941 0.493 469
752.302 227.140 0.493 469
752.262 227.339 0.493 469
752.182 227.538 0.493 485
752.102 227.697 0.493 502
752.022 227.856 0.494 502
751.942 228.016 0.494 502
751.901 228.215 0.494 518
751.821 228.374 0.494 518
751.741 228.573 0.494 518
751.701 228.772 0.495 534
751.621 229.051 0.495 550
751.541 229.210 0.495 550
751.501 229.449 0.495 550
751.421 229.608 0.496 566
751.381 229.807 0.495 566
751.341 229.966 0.496 583
751.300 230.165 0.496 583
751.260 230.324 0.496 599
751.220 230.484 0.496 599
751.140 230.643 0.496 599
751.100 230.802 0.496 615
751.100 231.001 0.496 615
751.020 231.160 0.496 632
750.980 231.399 0.496 632
750.900 231.558 0.497 632
750.860 231.757 0.497 648
750.780 231.956 0.497 664
750.740 232.116 0.498 664
750.659 232.275 0.498 664
750.619 232.434 0.499 680
750.539 232.593 0.499 680
750.499 232.753 0.499 680
750.459 232.912 0.500 696
750.419 233.031 0.500 713
750.379 233.191 0.500 713
750.339 233.350 0.500 713
750.339 233.509 0.500 729
750.299 233.708 0.501 745
750.259 233.827 0.501 745
750.219 233.987 0.501 745
750.179 234.106 0.502 761
750.179 234.265 0.502 761
750.139 234.425 0.502 761
750.099 234.544 0.502 777
750.018 234.703 0.502 777
749.978 234.823 0.502 793
749.938 234.982 0.503 793
749.898 235.101 0.503 810
749.858 235.221 0.503 810
749.818 235.340 0.503 826
749.778 235.460 0.503 826
749.738 235.579 0.503 826
749.698 235.698 0.504 842
749.658 235.818 0.503 842
749.618 235.977 0.504 842
749.578 236.097 0.504 858
749.538 236.216 0.504 874
749.497 236.335 0.505 874
749.457 236.455 0.506 874
749.417 236.574 0.507 890
749.377 236.694 0.509 906
749.297 236.813 0.510 906
749.257 236.933 0.511 906
749.257 237.052 0.512 922
749.217 237.211 0.513 922
749.177 237.291 0.513 922
749.097 237.450 0.514 938
749.097 237.569 0.514 955
749.057 237.689 0.515 955
749.017 237.808 0.515 955
748.977 237.928 0.516 971
748.937 238.047 0.516 971
748.896 238.206 0.517 987
748.856 238.326 0.516 987
748.776 238.445 0.517 987
748.736 238.565 0.517 1004
748.696 238.644 0.517 1004
748.656 238.764 0.518 1020
748.616 238.843 0.518 1020
748.576 238.923 0.518 1036
748.536 239.042 0.519 1036
748.496 239.122 0.519 1036
748.456 239.241 0.520 1052
748.416 239.361 0.521 1068
748.376 239.480 0.522 1068
748.336 239.600 0.522 1068
748.295 239.719 0.523 1085
748.255 239.839 0.523 1101
748.175 239.958 0.523 1101
748.135 240.077 0.523 1101
748.095 240.197 0.523 1117
748.055 240.316 0.524 1117
748.015 240.475 0.524 1117
748.015 240.555 0.524 1133
747.975 240.675 0.525 1133
747.935 240.834 0.525 1149
747.895 240.953 0.525 1149
747.855 241.073 0.525 1165
747.815 241.192 0.525 1165
747.775 241.311 0.526 1181
747.735 241.431 0.526 1181
747.695 241.550 0.526 1181
747.695 241.670 0.527 1198
747.654 241.789 0.527 1198
747.574 241.909 0.527 1198
747.534 242.068 0.529 1214
747.494 242.187 0.528 1230
747.454 242.346 0.528 1230
747.374 242.466 0.529 1230
747.334 242.625 0.529 1246
747.294 242.824 0.529 1263
747.214 242.944 0.530 1263
747.174 243.063 0.529 1263
747.093 243.222 0.530 1279
747.053 243.342 0.530 1279
747.053 243.421 0.530 1279
747.013 243.541 0.530 1295
746.933 243.620 0.531 1311
746.893 243.740 0.531 1311
746.853 243.859 0.532 1311
746.813 243.979 0.533 1327
746.733 244.098 0.534 1327
746.693 244.217 0.537 1343
746.653 244.337 0.538 1343
746.573 244.496 0.540 1343
746.533 244.616 0.541 1360
746.452 244.735 0.541 1360
746.412 244.894 0.542 1376
746.372 245.053 0.543 1376
746.332 245.173 0.543 1392
746.292 245.292 0.543 1392
746.212 245.412 0.543 1392
746.172 245.491 0.543 1408
746.132 245.651 0.544 1424
746.092 245.730 0.544 1424
746.052 245.850 0.544 1424
746.012 245.969 0.546 1441
745.972 246.088 0.545 1441
745.932 246.208 0.545 1457
745.891 246.327 0.546 1457
745.851 246.447 0.546 1457
745.771 246.566 0.546 1473
745.731 246.646 0.547 1473
745.731 246.765 0.548 1489
745.691 246.845 0.549 1489
745.651 246.964 0.550 1505
745.611 247.044 0.551 1505
745.571 247.123 0.553 1505
745.571 247.243 0.554 1521
745.531 247.402 0.555 1538
745.491 247.482 0.557 1538
745.451 247.601 0.557 1538
745.411 247.681 0.558 1554
745.411 247.800 0.559 1554
745.371 247.880 0.560 1554
745.371 247.959 0.561 1570
745.331 248.039 0.562 1586
745.250 248.159 0.563 1586
745.250 248.238 0.565 1586
745.210 248.318 0.565 1603
745.170 248.397 0.565 1603
745.170 248.517 0.566 1619
745.130 248.596 0.567 1619
745.090 248.716 0.567 1635
745.090 248.795 0.568 1635
745.050 248.915 0.568 1635
745.050 248.994 0.568 1651
745.010 249.114 0.570 1651
744.970 249.194 0.570 1667
744.930 249.313 0.570 1667
744.890 249.432 0.571 1667
744.850 249.552 0.571 1683
744.850 249.671 0.571 1700
744.810 249.791 0.572 1700
744.770 249.870 0.572 1700
744.770 249.990 0.572 1716
744.730 250.109 0.573 1732
744.730 250.189 0.574 1732
744.689 250.308 0.574 1732
744.689 250.428 0.575 1749
744.649 250.507 0.575 1749
744.609 250.666 0.576 1749
744.569 250.746 0.577 1765
744.529 250.865 0.577 1765
744.489 251.025 0.578 1781
744.449 251.144 0.580 1781
744.409 251.264 0.580 1797
744.369 251.383 0.581 1797
744.329 251.502 0.580 1813
744.289 251.622 0.582 1813
744.249 251.741 0.582 1813
744.169 251.861 0.581 1829
744.129 252.020 0.583 1829
744.089 252.139 0.583 1846
744.048 252.259 0.583 1846
744.008 252.378 0.583 1862
743.968 252.498 0.583 1862
743.888 252.617 0.583 1862
743.848 252.736 0.584 1878
743.808 252.856 0.584 1894
743.768 252.975 0.584 1894
743.728 253.095 0.585 1894
743.648 253.214 0.584 1911
743.608 253.294 0.585 1911
743.528 253.413 0.587 1927
743.487 253.533 0.586 1927
743.447 253.652 0.587 1927
743.327 253.771 0.588 1943
743.287 253.891 0.589 1943
743.207 254.050 0.591 1943
743.167 254.170 0.591 1959
743.087 254.329 0.592 1975
743.047 254.488 0.594 1975
743.007 254.607 0.595 1975
742.967 254.727 0.595 1991
742.927 254.846 0.596 2008
742.886 254.966 0.596 2008
742.846 255.085 0.596 2008
742.806 255.205 0.598 2024
742.806 255.284 0.598 2024
742.726 255.404 0.598 2024
742.686 255.483 0.599 2040
742.646 255.603 0.600 2056
742.646 255.722 0.600 2056
742.606 255.802 0.602 2056
742.526 255.921 0.602 2072
742.526 256.041 0.603 2072
742.486 256.120 0.603 2089
742.446 256.240 0.603 2089
742.406 256.319 0.604 2105
742.366 256.399 0.605 2105
742.326 256.558 0.606 2105
742.285 256.638 0.607 2121
742.245 256.717 0.607 2121
742.205 256.837 0.608 2137
742.125 256.916 0.610 2137
742.085 256.996 0.610 2137
742.005 257.115 0.611 2153
741.965 257.195 0.612 2170
741.885 257.314 0.613 2170
741.805 257.394 0.614 2170
741.765 257.513 0.615 2186
741.684 257.633 0.615 2202
741.644 257.752 0.616 2202
741.564 257.912 0.616 2202
741.484 258.031 0.617 2218
741.444 258.150 0.617 2218
741.364 258.270 0.617 2218
741.324 258.389 0.618 2234
741.204 258.509 0.618 2234
741.124 258.668 0.618 2250
741.083 258.827 0.618 2250
741.043 258.947 0.620 2266
740.963 259.106 0.620 2266
740.923 259.225 0.621 2283
740.843 259.384 0.622 2283
740.803 259.544 0.622 2283
740.763 259.663 0.623 2299
740.723 259.783 0.623 2299
740.683 259.902 0.622 2315
740.643 260.021 0.624 2315
740.563 260.141 0.624 2331
740.523 260.260 0.624 2331
740.482 260.419 0.625 2331
740.402 260.539 0.625 2347
740.362 260.698 0.625 2363
740.282 260.818 0.626 2363
740.242 260.977 0.626 2363
740.162 261.176 0.626 2379
740.122 261.295 0.627 2379
740.042 261.454 0.626 2379
740.002 261.574 0.627 2395
739.962 261.693 0.627 2412
739.922 261.813 0.627 2412
739.881 261.932 0.627 2412
739.881 262.052 0.628 2428
739.841 262.171 0.627 2444
739.801 262.290 0.628 2444
739.761 262.370 0.628 2444
739.721 262.490 0.629 2461
739.681 262.569 0.630 2461
739.641 262.689 0.629 2461
739.601 262.768 0.630 2477
739.601 262.888 0.630 2477
739.561 263.007 0.630 2493
739.521 263.087 0.630 2493
739.481 263.206 0.630 2493
739.441 263.325 0.630 2509
739.401 263.445 0.631 2525
739.361 263.564 0.631 2525
739.321 263.644 0.631 2525
739.240 263.724 0.632 2542
739.200 263.843 0.632 2542
739.160 263.923 0.633 2542
739.160 264.002 0.634 2558
739.120 264.122 0.634 2574
739.080 264.241 0.635 2574
739.040 264.361 0.634 2574
739.000 264.480 0.634 2590
738.960 264.599 0.636 2590
738.880 264.679 0.635 2607
738.840 264.798 0.635 2607
738.800 264.918 0.636 2623
738.800 264.997 0.636 2623
738.760 265.117 0.636 2623
738.720 265.196 0.636 2639
738.680 265.316 0.636 2639
738.639 265.435 0.636 2655
738.599 265.555 0.638 2655
738.559 265.634 0.637 2655
738.519 265.794 0.638 2671
738.479 265.913 0.638 2688
738.479 266.032 0.638 2688
738.439 266.112 0.638 2688
738.359 266.232 0.638 2704
738.359 266.351 0.638 2704
738.319 266.431 0.638 2704
738.279 266.550 0.638 2720
738.239 266.669 0.638 2736
738.199 266.789 0.638 2736
738.159 266.908 0.638 2736
738.119 267.028 0.638 2753
738.078 267.147 0.639 2769
737.998 267.267 0.639 2769
737.998 267.386 0.639 2769
737.958 267.505 0.639 2785
737.878 267.625 0.639 2785
737.878 267.704 0.639 2785
737.798 267.824 0.639 2801
737.758 267.903 0.639 2801
737.718 268.063 0.640 2817
737.678 268.182 0.639 2817
737.638 268.301 0.639 2834
737.598 268.421 0.640 2834
737.558 268.540 0.640 2850
737.518 268.620 0.640 2850
737.437 268.739 0.640 2850
737.397 268.819 0.640 2866
737.357 268.938 0.640 2866
737.277 269.058 0.641 2882
737.237 269.177 0.640 2882
737.197 269.337 0.641 2898
737.117 269.456 0.641 2898
737.037 269.575 0.641 2898
736.997 269.735 0.641 2914
736.917 269.854 0.641 2930
736.876 270.013 0.641 2930
736.836 270.133 0.641 2930
736.796 270.252 0.642 2947
736.756 270.411 0.641 2963
736.716 270.531 0.642 2963
736.676 270.650 0.642 2963
736.596 270.770 0.642 2979
736.556 270.849 0.642 2979
736.516 270.969 0.642 2979
736.476 271.088 0.642 2995
736.396 271.208 0.643 2995
736.356 271.327 0.642 3011
736.276 271.486 0.642 3011
736.235 271.606 0.643 3011
736.195 271.725 0.642 3027
736.115 271.844 0.643 3043
736.075 271.964 0.643 3043
735.995 272.123 0.643 3043
735.955 272.203 0.643 3060
735.915 272.322 0.643 3060
735.875 272.442 0.643 3060
735.835 272.601 0.643 3076
735.755 272.760 0.643 3092
735.755 272.879 0.643 3092
735.674 272.999 0.644 3092
735.634 273.158 0.644 3108
735.594 273.317 0.644 3124
735.514 273.437 0.644 3124
735.434 273.596 0.644 3124
735.354 273.755 0.644 3140
735.314 273.875 0.644 3140
735.234 274.034 0.644 3140
735.154 274.153 0.645 3156
735.114 274.313 0.645 3172
735.073 274.432 0.644 3172
735.033 274.551 0.645 3172
734.953 274.711 0.645 3189
734.913 274.830 0.645 3189
734.873 274.989 0.645 3205
734.793 275.149 0.645 3205
734.753 275.308 0.645 3205
734.673 275.467 0.645 3221
734.633 275.626 0.645 3221
734.593 275.746 0.645 3237
734.513 275.905 0.645 3237
734.472 276.024 0.645 3254
734.392 276.144 0.645 3254
734.352 276.263 0.645 3254
734.312 276.383 0.645 3270
734.232 276.502 0.645 3286
734.192 276.621 0.646 3286
734.152 276.741 0.645 3286
734.112 276.860 0.646 3302
734.032 276.980 0.645 3302
733.992 277.099 0.646 3302
733.952 277.298 0.647 3318
733.912 277.418 0.646 3334
733.831 277.537 0.646 3334
733.791 277.656 0.647 3334
733.751 277.776 0.646 3351
733.711 277.895 0.647 3367
733.631 278.015 0.647 3367
733.591 278.134 0.646 3367
733.551 278.254 0.647 3383
733.511 278.373 0.646 3383
733.471 278.492 0.646 3383
733.391 278.612 0.647 3399
733.351 278.731 0.647 3399
733.310 278.851 0.647 3415
733.230 278.970 0.647 3415
733.150 279.090 0.646 3431
733.070 279.169 0.647 3431
733.030 279.289 0.647 3448
732.990 279.368 0.647 3448
732.910 279.488 0.647 3448
732.910 279.607 0.647 3464
732.830 279.727 0.647 3464
732.790 279.846 0.647 3464
732.750 279.965 0.647 3480
732.709 280.125 0.646 3496
732.669 280.244 0.647 3496
732.589 280.403 0.647 3496
732.549 280.563 0.647 3512
732.509 280.722 0.648 3528
732.469 280.881 0.647 3528
732.429 281.040 0.647 3528
732.389 281.160 0.648 3545
732.349 281.319 0.647 3545
732.309 281.438 0.648 3545
732.269 281.558 0.648 3561
732.229 281.637 0.647 3577
732.189 281.757 0.648 3577
732.149 281.916 0.648 3577
732.109 282.035 0.647 3593
732.068 282.155 0.648 3593
731.988 282.274 0.648 3609
731.948 282.394 0.648 3609
731.868 282.513 0.648 3609
731.828 282.633 0.648 3626
731.748 282.712 0.648 3626
731.668 282.832 0.649 3642
731.628 282.951 0.648 3642
731.588 283.070 0.648 3658
731.548 283.190 0.648 3658
731.508 283.309 0.648 3658
731.427 283.429 0.648 3674
731.387 283.508 0.648 3691
731.347 283.628 0.648 3691
731.267 283.787 0.649 3691
731.187 283.906 0.648 3707
731.147 283.986 0.648 3707
731.027 284.105 0.649 3707
730.947 284.265 0.648 3723
730.906 284.384 0.649 3739
730.826 284.504 0.649 3739
730.786 284.583 0.648 3739
730.706 284.703 0.649 3755
730.666 284.822 0.649 3755
730.586 284.902 0.648 3772
730.546 285.021 0.649 3772
730.506 285.101 0.649 3788
730.426 285.180 0.649 3788
730.386 285.260 0.650 3804
730.346 285.339 0.650 3804
730.265 285.419 0.649 3804
730.185 285.499 0.650 3820
730.105 285.618 0.650 3820
730.025 285.738 0.650 3820
729.905 285.857 0.651 3836
729.825 285.976 0.650 3852
729.745 286.096 0.650 3852
729.664 286.215 0.651 3852
729.624 286.335 0.651 3869
729.544 286.414 0.651 3885
729.464 286.494 0.651 3885
729.384 286.613 0.651 3885
729.304 286.693 0.652 3901
729.224 286.733 0.652 3901
729.144 286.812 0.651 3901
729.063 286.892 0.652 3917
728.983 286.972 0.652 3917
728.863 287.051 0.652 3933
728.783 287.131 0.653 3933
728.663 287.250 0.653 3949
728.583 287.370 0.654 3949
728.462 287.449 0.655 3966
728.382 287.529 0.655 3966
728.302 287.648 0.655 3966
728.262 287.728 0.655 3982
728.182 287.768 0.656 3998
728.102 287.808 0.657 3998
728.022 287.887 0.658 3998
727.942 287.927 0.659 4014
727.861 288.007 0.661 4014
727.741 288.046 0.661 4030
727.661 288.126 0.663 4030
727.541 288.206 0.665 4030
727.461 288.245 0.666 4047
727.381 288.325 0.668 4047
727.260 288.365 0.670 4063
727.180 288.405 0.671 4063
727.060 288.445 0.672 4079
726.980 288.484 0.674 4079
726.860 288.524 0.674 4079
726.780 288.564 0.675 4095
726.700 288.604 0.676 4112
726.619 288.644 0.677 4112
726.539 288.723 0.678 4112
726.419 288.763 0.679 4128
726.339 288.803 0.679 4128
726.219 288.922 0.681 4128
726.139 288.962 0.681 4144
726.018 289.002 0.682 4160
725.938 289.042 0.683 4160
725.858 289.081 0.685 4160
725.738 289.121 0.685 4176
725.658 289.161 0.688 4176
725.538 289.201 0.687 4192
725.417 289.281 0.689 4192
725.297 289.320 0.689 4192
725.177 289.400 0.689 4208
725.057 289.480 0.691 4208
724.937 289.519 0.690 4225
724.816 289.599 0.691 4225
724.696 289.639 0.692 4241
724.616 289.718 0.692 4241
724.496 289.758 0.692 4241
724.416 289.798 0.693 4257
724.296 289.798 0.692 4273
724.215 289.838 0.694 4273
724.135 289.838 0.695 4273
724.015 289.838 0.697 4289
723.935 289.838 0.699 4289
723.855 289.838 0.701 4289
723.735 289.838 0.702 4305
723.654 289.838 0.703 4321
723.534 289.878 0.704 4321
723.414 289.917 0.705 4321
723.334 289.997 0.705 4338
723.174 290.037 0.705 4354
723.094 290.077 0.706 4354
722.973 290.156 0.706 4354
722.853 290.196 0.706 4370
722.733 290.236 0.707 4370
722.613 290.276 0.707 4370
722.533 290.276 0.708 4386
722.452 290.315 0.709 4386
722.372 290.315 0.708 4403
722.252 290.315 0.708 4403
722.092 290.355 0.709 4403
721.972 290.355 0.710 4419
721.851 290.355 0.710 4435
721.731 290.355 0.712 4435
721.571 290.395 0.712 4435
721.411 290.435 0.712 4451
721.290 290.475 0.713 4467
721.170 290.515 0.713 4467
721.050 290.515 0.713 4467
720.970 290.554 0.714 4484
720.890 290.594 0.714 4484
720.810 290.594 0.715 4484
720.690 290.594 0.715 4500
720.609 290.594 0.715 4516
720.489 290.594 0.715 4516
720.369 290.594 0.716 4516
720.249 290.594 0.717 4532
720.129 290.594 0.717 4532
720.008 290.594 0.718 4548
719.888 290.594 0.720 4548
719.768 290.594 0.721 4548
719.648 290.594 0.721 4564
719.528 290.594 0.722 4564
719.407 290.594 0.723 4581
719.287 290.594 0.724 4581
719.127 290.594 0.725 4597
719.007 290.594 0.725 4597
718.886 290.594 0.725 4597
718.726 290.594 0.725 4613
718.486 290.594 0.726 4629
718.326 290.594 0.725 4629
718.165 290.594 0.727 4629
718.005 290.594 0.726 4645
717.805 290.594 0.727 4645
717.644 290.554 0.726 4645
717.524 290.554 0.726 4662
717.404 290.515 0.726 4678
717.284 290.475 0.728 4678
717.164 290.475 0.727 4678
717.083 290.435 0.726 4694
716.963 290.395 0.728 4694
716.883 290.355 0.727 4710
716.803 290.355 0.727 4710
716.723 290.315 0.727 4727
716.643 290.315 0.727 4727
716.563 290.276 0.728 4743
716.482 290.276 0.728 4743
716.362 290.236 0.728 4743
716.282 290.196 0.729 4759
716.202 290.156 0.729 4759
716.082 290.116 0.728 4759
716.002 290.077 0.728 4775
715.922 290.037 0.729 4791
715.841 290.037 0.729 4791
715.721 289.997 0.730 4791
715.641 289.957 0.731 4807
715.521 289.917 0.733 4807
715.441 289.878 0.733 4823
715.321 289.838 0.733 4823
715.240 289.758 0.735 4840
715.120 289.718 0.735 4840
715.000 289.679 0.735 4856
714.880 289.639 0.736 4856
714.760 289.559 0.737 4856
714.599 289.519 0.737 4872
714.519 289.440 0.738 4872
714.399 289.400 0.740 4872
714.319 289.320 0.740 4888
714.199 289.281 0.742 4905
714.119 289.201 0.742 4905
713.998 289.161 0.743 4905
713.918 289.121 0.745 4921
713.798 289.081 0.745 4937
713.678 289.042 0.747 4937
713.598 288.922 0.747 4937
713.477 288.882 0.748 4953
713.397 288.843 0.750 4953
713.277 288.763 0.750 4953
713.197 288.723 0.750 4969
713.117 288.683 0.751 4969
712.997 288.604 0.750 4985
712.917 288.564 0.751 4985
712.836 288.524 0.752 4985
712.756 288.484 0.751 5002
712.716 288.405 0.751 5020
712.636 288.325 0.752 5020
712.556 288.245 0.751 5020
712.476 288.126 0.751 5036
712.396 288.007 0.752 5036
712.315 287.887 0.752 5036
712.235 287.768 0.753 5052
712.155 287.688 0.753 5068
712.075 287.569 0.754 5068
711.995 287.489 0.755 5068
711.915 287.410 0.756 5085
711.835 287.330 0.756 5101
711.755 287.211 0.757 5101
711.674 287.131 0.757 5101
711.594 287.011 0.757 5117
711.514 286.892 0.758 5117
711.434 286.773 0.758 5117
711.394 286.613 0.757 5133
711.314 286.494 0.758 5133
711.234 286.414 0.757 5149
711.154 286.295 0.758 5149
711.073 286.175 0.758 5166
711.033 286.096 0.759 5166
710.993 285.976 0.759 5182
710.953 285.857 0.758 5182
710.913 285.738 0.758 5182
710.833 285.618 0.759 5198
710.793 285.499 0.759 5198
710.753 285.419 0.759 5214
710.713 285.300 0.760 5214
710.633 285.220 0.760 5230
710.633 285.101 0.759 5230
710.593 285.021 0.760 5230
710.553 284.902 0.760 5246
710.553 284.822 0.761 5263
710.513 284.703 0.761 5263
710.513 284.583 0.760 5263
710.513 284.464 0.761 5279
710.472 284.344 0.761 5279
710.432 284.225 0.761 5279
710.432 284.145 0.761 5295
710.352 284.066 0.762 5311
710.312 283.986 0.761 5311
710.272 283.906 0.763 5311
710.232 283.827 0.763 5327
710.192 283.747 0.762 5327
710.152 283.628 0.764 5343
710.112 283.548 0.762 5343
