% x_coordinate y_coordinate pressure time
% shape 0, 260 points

818.536 289.879 0.466 291
818.736 289.839 0.470 291
818.977 289.799 0.473 308
819.217 289.720 0.477 324
819.457 289.680 0.479 324
819.698 289.600 0.482 324
819.938 289.561 0.485 340
820.179 289.521 0.486 340
820.379 289.481 0.487 356
820.539 289.441 0.487 356
820.699 289.441 0.488 356
820.860 289.401 0.488 372
821.020 289.362 0.490 388
821.140 289.362 0.491 388
821.300 289.322 0.492 388
821.421 289.322 0.493 404
821.581 289.282 0.494 404
821.701 289.242 0.495 404
821.861 289.202 0.496 420
822.022 289.163 0.497 437
822.222 289.083 0.498 437
822.382 289.043 0.498 437
822.583 288.924 0.499 453
822.783 288.844 0.499 469
822.943 288.764 0.500 469
823.104 288.685 0.500 469
823.264 288.605 0.500 485
823.464 288.526 0.500 485
823.584 288.446 0.500 485
823.704 288.406 0.500 501
823.865 288.366 0.500 501
823.945 288.327 0.500 517
824.065 288.287 0.500 517
824.225 288.247 0.500 517
824.386 288.207 0.500 533
824.506 288.167 0.500 549
824.666 288.128 0.500 549
824.826 288.048 0.500 549
824.987 288.008 0.500 566
825.187 287.929 0.500 582
825.307 287.849 0.500 582
825.467 287.769 0.501 582
825.588 287.690 0.501 598
825.708 287.650 0.501 598
825.868 287.570 0.501 598
825.988 287.530 0.501 614
826.109 287.451 0.501 630
826.229 287.411 0.501 630
826.389 287.331 0.500 630
826.509 287.252 0.500 647
826.589 287.172 0.500 647
826.710 287.132 0.500 663
826.790 287.053 0.500 663
826.870 286.973 0.499 663
826.950 286.933 0.499 679
827.030 286.854 0.499 679
827.110 286.774 0.499 695
827.190 286.694 0.499 695
827.310 286.575 0.499 711
827.391 286.495 0.499 711
827.471 286.416 0.499 711
827.551 286.376 0.499 727
827.631 286.336 0.499 743
827.711 286.257 0.499 743
827.751 286.217 0.499 743
827.831 286.177 0.498 760
827.911 286.097 0.499 760
827.992 286.057 0.499 760
828.112 285.978 0.499 776
828.192 285.898 0.498 792
828.272 285.819 0.498 792
828.352 285.779 0.498 792
828.432 285.699 0.499 808
828.513 285.620 0.498 808
828.593 285.540 0.498 824
828.633 285.500 0.499 824
828.713 285.421 0.498 840
828.793 285.341 0.499 840
828.873 285.261 0.498 840
828.913 285.182 0.499 856
828.993 285.142 0.498 856
829.033 285.062 0.499 872
829.114 284.983 0.499 872
829.154 284.903 0.499 889
829.234 284.823 0.499 889
829.314 284.784 0.498 905
829.354 284.704 0.498 905
829.434 284.664 0.499 905
829.474 284.585 0.499 921
829.554 284.545 0.499 921
829.594 284.465 0.499 921
829.674 284.425 0.499 937
829.715 284.346 0.499 953
829.795 284.226 0.499 953
829.835 284.147 0.499 953
829.915 284.067 0.499 969
829.955 283.987 0.499 986
829.995 283.908 0.499 986
830.075 283.788 0.499 986
830.115 283.709 0.499 1002
830.155 283.589 0.499 1002
830.195 283.510 0.499 1002
830.235 283.390 0.499 1018
830.275 283.351 0.499 1034
830.315 283.271 0.499 1034
830.356 283.231 0.499 1034
830.396 283.151 0.499 1051
830.436 283.112 0.499 1051
830.516 283.072 0.499 1067
830.556 282.992 0.499 1067
830.636 282.913 0.499 1067
830.676 282.833 0.499 1083
830.756 282.753 0.499 1083
830.836 282.634 0.499 1099
830.876 282.554 0.499 1099
830.917 282.515 0.499 1115
830.957 282.435 0.499 1115
830.997 282.355 0.499 1115
831.037 282.276 0.499 1132
831.077 282.196 0.499 1148
831.117 282.116 0.499 1148
831.157 282.037 0.499 1148
831.197 281.997 0.499 1164
831.237 281.878 0.499 1164
831.277 281.838 0.499 1180
831.317 281.798 0.499 1180
831.397 281.718 0.498 1197
831.477 281.679 0.498 1197
831.518 281.599 0.499 1197
831.598 281.519 0.499 1213
831.638 281.480 0.499 1213
831.678 281.400 0.499 1229
831.718 281.360 0.499 1229
831.798 281.320 0.499 1229
831.838 281.241 0.499 1245
831.878 281.201 0.498 1261
831.918 281.161 0.499 1261
831.958 281.081 0.499 1261
832.038 281.002 0.499 1278
832.078 280.962 0.499 1278
832.119 280.882 0.499 1278
832.199 280.803 0.499 1294
832.239 280.723 0.499 1310
832.319 280.683 0.499 1310
832.399 280.604 0.499 1310
832.439 280.524 0.499 1326
832.519 280.445 0.499 1342
832.599 280.365 0.499 1342
832.679 280.285 0.499 1342
832.719 280.206 0.499 1359
832.760 280.126 0.499 1359
832.800 280.046 0.499 1359
832.840 279.967 0.500 1375
832.880 279.887 0.499 1391
832.920 279.847 0.500 1391
832.960 279.728 0.499 1391
833.000 279.648 0.500 1407
833.040 279.529 0.500 1407
833.080 279.449 0.500 1423
833.160 279.370 0.500 1423
833.200 279.250 0.500 1423
833.240 279.171 0.500 1439
833.321 279.051 0.500 1439
833.361 278.932 0.500 1439
833.441 278.852 0.500 1455
833.521 278.773 0.501 1471
833.561 278.693 0.501 1471
833.641 278.613 0.502 1471
833.721 278.534 0.503 1487
833.761 278.454 0.504 1504
833.801 278.374 0.505 1504
833.881 278.295 0.505 1504
833.922 278.215 0.506 1520
834.002 278.136 0.506 1520
834.042 278.096 0.507 1536
834.122 278.016 0.507 1536
834.162 277.937 0.508 1536
834.202 277.857 0.508 1552
834.242 277.817 0.508 1552
834.282 277.738 0.509 1568
834.362 277.658 0.509 1568
834.402 277.578 0.510 1584
834.482 277.499 0.511 1584
834.523 277.419 0.512 1584
834.563 277.339 0.514 1601
834.603 277.220 0.515 1617
834.683 277.180 0.517 1617
834.723 277.101 0.518 1617
834.763 277.021 0.519 1633
834.843 276.941 0.519 1633
834.883 276.862 0.521 1633
834.963 276.782 0.522 1649
835.083 276.703 0.522 1665
835.124 276.623 0.523 1665
835.204 276.543 0.524 1665
835.244 276.424 0.525 1681
835.324 276.305 0.528 1681
835.364 276.145 0.530 1698
835.444 276.026 0.534 1698
835.524 275.906 0.539 1714
835.564 275.787 0.542 1714
835.644 275.668 0.543 1714
835.685 275.588 0.545 1730
835.765 275.508 0.546 1730
835.805 275.429 0.547 1746
835.845 275.349 0.547 1746
835.925 275.309 0.547 1746
835.965 275.230 0.548 1762
836.005 275.150 0.548 1779
836.005 275.110 0.548 1779
836.045 275.110 0.549 1779
836.045 275.070 0.549 1795
836.045 275.070 0.550 1795
836.045 275.070 0.549 1811
836.045 275.070 0.530 1827
836.045 275.070 0.463 1827
836.045 275.070 0.332 1827
836.045 275.070 0.041 1843

% x_coordinate y_coordinate pressure time
% shape 1, 681 points
855.678 256.002 0.002 0
855.678 256.002 0.013 0
855.678 256.002 0.034 16
855.678 256.002 0.057 16
855.678 256.002 0.078 16
855.678 256.002 0.109 32
855.678 256.002 0.136 48
855.678 256.002 0.159 48
855.678 256.042 0.178 48
855.678 256.042 0.194 65
855.678 256.082 0.206 81
855.678 256.122 0.215 81
855.678 256.122 0.223 81
855.678 256.161 0.232 97
855.678 256.161 0.242 97
855.678 256.161 0.260 97
855.678 256.161 0.283 113
855.678 256.161 0.303 113
855.678 256.161 0.323 129
855.678 256.161 0.345 129
855.678 256.201 0.367 145
855.678 256.201 0.382 145
855.638 256.201 0.396 162
855.558 256.201 0.409 162
855.477 256.201 0.417 162
855.357 256.201 0.423 178
855.237 256.201 0.429 178
855.077 256.241 0.434 178
854.876 256.321 0.439 194
854.676 256.361 0.443 210
854.476 256.440 0.447 210
854.276 256.480 0.453 210
854.035 256.520 0.457 226
853.795 256.560 0.463 242
853.514 256.599 0.467 242
853.274 256.639 0.473 242
853.033 256.679 0.480 258
852.793 256.719 0.488 258
852.553 256.719 0.495 258
852.352 256.759 0.501 275
852.112 256.798 0.508 291
851.871 256.838 0.512 291
851.631 256.918 0.514 291
851.431 256.997 0.515 307
851.190 257.077 0.517 307
850.990 257.196 0.517 323
850.750 257.316 0.518 323
850.549 257.435 0.518 339
850.309 257.555 0.518 339
850.109 257.674 0.519 339
849.948 257.794 0.519 355
849.788 257.873 0.520 355
849.668 257.953 0.521 371
849.508 257.993 0.522 371
849.347 258.072 0.525 371
849.187 258.112 0.529 388
849.027 258.192 0.533 404
848.866 258.271 0.537 404
848.666 258.351 0.539 404
848.466 258.431 0.541 420
848.305 258.590 0.542 420
848.145 258.749 0.543 420
847.945 258.868 0.543 436
847.825 259.028 0.543 452
847.664 259.147 0.543 452
847.504 259.267 0.543 452
847.344 259.386 0.544 468
847.224 259.466 0.544 485
847.104 259.585 0.544 485
846.983 259.665 0.545 485
846.863 259.744 0.546 501
846.743 259.824 0.546 501
846.623 259.903 0.547 517
846.503 260.023 0.547 517
846.382 260.142 0.548 517
846.222 260.262 0.549 533
846.102 260.381 0.550 533
845.982 260.501 0.550 533
845.821 260.620 0.551 549
845.661 260.739 0.552 565
845.541 260.899 0.554 565
845.381 261.058 0.555 565
845.220 261.177 0.556 581
845.100 261.337 0.557 598
844.940 261.496 0.558 598
844.740 261.615 0.558 598
844.539 261.774 0.559 614
844.379 261.934 0.560 614
844.219 262.053 0.560 614
844.058 262.212 0.562 630
843.938 262.372 0.563 646
843.778 262.531 0.564 646
843.658 262.690 0.565 646
843.497 262.849 0.567 662
843.337 263.009 0.568 662
843.217 263.168 0.569 678
843.057 263.367 0.569 678
842.896 263.526 0.570 678
842.736 263.685 0.571 695
842.616 263.844 0.571 711
842.456 264.004 0.571 711
842.336 264.163 0.571 711
842.215 264.282 0.571 727
842.095 264.442 0.572 727
841.975 264.561 0.572 727
841.815 264.720 0.572 743
841.694 264.840 0.573 759
841.574 264.999 0.574 759
841.454 265.118 0.574 759
841.334 265.238 0.575 776
841.214 265.397 0.575 792
841.094 265.556 0.576 792
841.013 265.715 0.576 792
840.893 265.875 0.576 808
840.813 265.994 0.576 808
840.733 266.114 0.577 808
840.653 266.233 0.576 824
840.613 266.352 0.577 824
840.533 266.432 0.577 840
840.452 266.551 0.577 840
840.412 266.711 0.577 857
840.332 266.870 0.577 857
840.252 267.029 0.577 873
840.132 267.188 0.578 873
840.052 267.348 0.577 873
839.972 267.507 0.578 889
839.851 267.666 0.578 889
839.771 267.865 0.578 889
839.691 268.064 0.578 905
839.571 268.184 0.578 921
839.491 268.303 0.578 921
839.371 268.422 0.579 921
839.331 268.542 0.579 937
839.290 268.621 0.579 953
839.250 268.701 0.579 953
839.210 268.781 0.579 953
839.170 268.860 0.579 970
839.130 268.940 0.580 970
839.050 269.020 0.580 970
839.010 269.139 0.581 986
838.970 269.219 0.581 1002
838.890 269.338 0.581 1002
838.850 269.457 0.582 1002
838.770 269.537 0.582 1018
838.730 269.656 0.582 1018
838.649 269.816 0.582 1034
838.609 269.935 0.583 1034
838.529 270.094 0.582 1050
838.489 270.214 0.583 1050
838.409 270.413 0.583 1050
838.369 270.532 0.584 1066
838.329 270.652 0.584 1066
838.249 270.811 0.584 1083
838.169 270.930 0.585 1083
838.129 271.010 0.585 1099
838.048 271.169 0.586 1099
837.968 271.289 0.586 1115
837.928 271.408 0.587 1115
837.848 271.527 0.587 1115
837.808 271.647 0.587 1131
837.768 271.766 0.587 1131
837.728 271.846 0.587 1131
837.688 271.926 0.588 1147
837.648 272.005 0.588 1163
837.648 272.125 0.589 1163
837.608 272.164 0.591 1163
837.608 272.284 0.591 1179
837.568 272.363 0.592 1195
837.528 272.443 0.592 1195
837.487 272.523 0.592 1195
837.447 272.682 0.593 1211
837.407 272.801 0.593 1211
837.367 272.881 0.593 1211
837.287 273.000 0.594 1228
837.247 273.120 0.595 1244
837.207 273.239 0.595 1244
837.127 273.359 0.596 1244
837.047 273.478 0.598 1260
837.007 273.597 0.598 1260
836.927 273.757 0.599 1276
836.886 273.876 0.600 1276
836.846 273.996 0.600 1276
836.766 274.115 0.602 1292
836.766 274.234 0.603 1292
836.726 274.354 0.604 1309
836.686 274.433 0.605 1309
836.646 274.553 0.606 1325
836.606 274.672 0.607 1325
836.566 274.752 0.608 1325
836.526 274.832 0.608 1341
836.446 274.911 0.608 1357
836.406 275.070 0.609 1357
836.366 275.190 0.609 1357
836.326 275.269 0.610 1373
836.285 275.389 0.611 1373
836.245 275.469 0.612 1373
836.205 275.588 0.613 1389
836.165 275.707 0.614 1406
836.085 275.787 0.616 1406
836.045 275.906 0.617 1406
836.005 276.066 0.618 1422
835.965 276.185 0.618 1438
835.965 276.344 0.619 1438
835.925 276.464 0.619 1438
835.885 276.623 0.620 1454
835.845 276.742 0.620 1454
835.805 276.902 0.620 1454
835.765 277.021 0.620 1470
835.725 277.140 0.621 1470
835.685 277.339 0.621 1486
835.644 277.459 0.621 1486
835.604 277.578 0.621 1503
835.564 277.738 0.621 1503
835.524 277.857 0.622 1519
835.484 277.976 0.622 1519
835.404 278.096 0.622 1519
835.364 278.215 0.622 1535
835.364 278.335 0.622 1535
835.324 278.454 0.622 1535
835.324 278.573 0.622 1551
835.324 278.693 0.621 1567
835.324 278.812 0.621 1567
835.324 278.932 0.621 1567
835.324 279.051 0.621 1583
835.284 279.211 0.621 1599
835.284 279.370 0.622 1599
835.284 279.529 0.622 1599
835.284 279.768 0.622 1616
835.244 279.927 0.622 1616
835.244 280.126 0.622 1616
835.204 280.245 0.623 1632
835.204 280.405 0.623 1648
835.204 280.524 0.623 1648
835.204 280.644 0.623 1648
835.204 280.763 0.622 1664
835.204 280.882 0.622 1664
835.204 281.002 0.622 1680
835.204 281.121 0.622 1680
835.204 281.241 0.622 1696
835.204 281.400 0.622 1696
835.204 281.519 0.622 1696
835.204 281.639 0.622 1713
835.204 281.798 0.622 1713
835.204 281.957 0.622 1729
835.204 282.077 0.622 1729
835.204 282.196 0.622 1729
835.204 282.315 0.622 1745
835.204 282.435 0.622 1761
835.204 282.554 0.622 1761
835.204 282.674 0.621 1761
835.204 282.833 0.621 1777
835.244 282.913 0.621 1794
835.324 283.032 0.621 1794
835.324 283.151 0.621 1794
835.364 283.231 0.622 1810
835.404 283.351 0.622 1810
835.404 283.430 0.622 1810
835.444 283.550 0.622 1826
835.444 283.629 0.623 1826
835.484 283.749 0.623 1842
835.524 283.828 0.623 1842
835.524 283.948 0.623 1842
835.564 284.067 0.624 1858
835.604 284.187 0.624 1875
835.604 284.306 0.624 1875
835.644 284.425 0.624 1875
835.644 284.505 0.624 1891
835.685 284.624 0.624 1891
835.725 284.704 0.624 1891
835.765 284.823 0.624 1907
835.845 284.943 0.624 1923
835.925 285.022 0.623 1923
835.965 285.142 0.623 1923
836.005 285.261 0.623 1939
836.085 285.381 0.624 1939
836.125 285.460 0.625 1955
836.165 285.580 0.625 1955
836.205 285.699 0.625 1972
836.285 285.819 0.626 1972
836.326 285.898 0.626 1988
836.406 286.018 0.626 1988
836.446 286.097 0.627 1988
836.486 286.217 0.626 2004
836.566 286.296 0.626 2004
836.646 286.376 0.627 2004
836.726 286.456 0.627 2020
836.766 286.575 0.628 2036
836.846 286.615 0.630 2036
836.927 286.734 0.630 2036
837.007 286.814 0.630 2052
837.087 286.893 0.630 2069
837.167 286.933 0.630 2069
837.247 287.013 0.631 2069
837.327 287.093 0.631 2085
837.407 287.132 0.631 2085
837.487 287.172 0.632 2085
837.568 287.212 0.633 2101
837.648 287.292 0.635 2117
837.688 287.331 0.636 2117
837.768 287.371 0.637 2117
837.848 287.451 0.639 2133
837.928 287.530 0.639 2133
838.008 287.610 0.640 2150
838.089 287.690 0.640 2150
838.129 287.769 0.641 2166
838.209 287.849 0.641 2166
838.249 287.889 0.641 2166
838.289 287.968 0.641 2182
838.369 288.008 0.641 2182
838.449 288.088 0.642 2198
838.529 288.128 0.642 2198
838.609 288.167 0.642 2198
838.730 288.247 0.642 2214
838.810 288.287 0.641 2230
838.930 288.327 0.642 2230
839.050 288.366 0.642 2230
839.130 288.406 0.643 2246
839.250 288.486 0.644 2246
839.290 288.526 0.645 2246
839.411 288.565 0.646 2263
839.491 288.645 0.647 2279
839.571 288.685 0.647 2279
839.651 288.725 0.647 2279
839.731 288.844 0.648 2295
839.851 288.884 0.648 2311
839.932 288.924 0.648 2311
840.052 288.964 0.648 2311
840.172 288.964 0.648 2327
840.252 289.003 0.649 2327
840.332 289.043 0.649 2327
840.452 289.083 0.649 2344
840.533 289.083 0.650 2360
840.613 289.123 0.649 2360
840.693 289.123 0.650 2360
840.813 289.163 0.649 2376
840.933 289.202 0.649 2376
841.053 289.242 0.649 2392
841.214 289.282 0.651 2392
841.374 289.322 0.652 2392
841.534 289.362 0.653 2408
841.694 289.441 0.654 2408
841.855 289.481 0.655 2424
841.975 289.561 0.655 2424
842.135 289.600 0.656 2441
842.255 289.680 0.656 2441
842.416 289.720 0.656 2441
842.536 289.760 0.657 2457
842.656 289.799 0.657 2473
842.776 289.839 0.657 2473
842.896 289.879 0.657 2473
843.017 289.919 0.657 2489
843.177 289.919 0.658 2489
843.297 289.959 0.658 2489
843.377 289.959 0.659 2506
843.457 289.959 0.659 2522
843.578 289.959 0.659 2522
843.658 289.959 0.660 2522
843.778 289.959 0.660 2538
843.858 289.959 0.661 2538
843.978 289.959 0.662 2554
844.099 289.959 0.662 2554
844.179 289.998 0.662 2570
844.299 289.998 0.663 2570
844.339 289.998 0.663 2570
844.459 289.998 0.663 2586
844.539 289.998 0.663 2586
844.700 289.998 0.663 2603
844.820 289.998 0.663 2603
844.940 289.998 0.664 2619
845.140 289.998 0.664 2619
845.301 289.998 0.665 2635
845.461 289.998 0.666 2635
845.621 289.998 0.666 2635
845.781 289.998 0.666 2651
845.982 289.998 0.667 2651
846.142 289.998 0.667 2651
846.262 289.998 0.667 2667
846.422 289.998 0.668 2683
846.623 289.998 0.668 2683
846.823 289.959 0.668 2683
846.983 289.879 0.669 2700
847.184 289.839 0.669 2716
847.344 289.799 0.669 2716
847.504 289.720 0.670 2716
847.664 289.680 0.670 2732
847.785 289.680 0.670 2732
847.905 289.640 0.670 2732
847.985 289.640 0.671 2748
848.105 289.600 0.671 2748
848.265 289.600 0.671 2764
848.386 289.561 0.671 2764
848.506 289.521 0.672 2780
848.666 289.521 0.672 2780
848.786 289.481 0.672 2796
848.947 289.441 0.672 2796
849.067 289.362 0.672 2796
849.227 289.322 0.673 2812
849.387 289.242 0.673 2812
849.508 289.163 0.673 2829
849.628 289.123 0.673 2829
849.788 289.043 0.673 2845
849.908 289.003 0.673 2845
849.988 288.924 0.674 2845
850.149 288.884 0.674 2861
850.269 288.804 0.674 2877
850.429 288.725 0.674 2877
850.549 288.605 0.674 2877
850.669 288.526 0.674 2894
850.790 288.406 0.674 2894
850.910 288.287 0.674 2894
851.030 288.167 0.674 2910
851.150 288.048 0.674 2927
851.270 287.929 0.674 2927
851.431 287.849 0.674 2927
851.591 287.729 0.674 2943
851.711 287.610 0.675 2959
851.871 287.530 0.675 2959
851.992 287.411 0.675 2959
852.112 287.331 0.675 2975
852.232 287.212 0.675 2975
852.352 287.132 0.675 2975
852.513 287.013 0.675 2991
852.633 286.893 0.675 2991
852.753 286.734 0.675 3007
852.873 286.615 0.675 3007
853.033 286.495 0.676 3024
853.114 286.376 0.676 3024
853.234 286.257 0.676 3040
853.314 286.137 0.676 3040
853.394 286.018 0.676 3040
853.554 285.898 0.676 3056
853.674 285.779 0.676 3056
853.795 285.659 0.676 3056
853.915 285.500 0.676 3073
854.035 285.381 0.675 3089
854.155 285.221 0.674 3089
854.276 285.062 0.674 3089
854.356 284.943 0.673 3105
854.476 284.784 0.672 3105
854.596 284.664 0.671 3121
854.716 284.545 0.670 3121
854.836 284.386 0.670 3137
854.957 284.266 0.670 3137
855.077 284.147 0.669 3137
855.157 283.948 0.670 3153
855.277 283.788 0.669 3153
855.357 283.669 0.670 3170
855.477 283.550 0.670 3170
855.638 283.390 0.670 3186
855.758 283.271 0.670 3186
855.838 283.151 0.670 3202
855.918 283.032 0.669 3202
855.998 282.952 0.669 3202
856.078 282.833 0.669 3218
856.119 282.753 0.669 3234
856.199 282.674 0.669 3234
856.279 282.554 0.669 3234
856.359 282.475 0.669 3250
856.439 282.355 0.669 3250
856.519 282.236 0.668 3250
856.599 282.156 0.668 3266
856.680 282.037 0.669 3283
856.760 281.917 0.668 3283
856.840 281.838 0.667 3283
856.920 281.758 0.667 3299
857.040 281.679 0.666 3299
857.080 281.519 0.665 3315
857.160 281.400 0.665 3315
857.240 281.320 0.664 3331
857.321 281.201 0.664 3331
857.361 281.121 0.664 3331
857.441 281.002 0.664 3347
857.521 280.882 0.664 3347
857.601 280.803 0.664 3363
857.641 280.723 0.663 3363
857.721 280.644 0.663 3363
857.801 280.564 0.663 3379
857.841 280.524 0.663 3395
857.881 280.405 0.663 3395
857.922 280.325 0.663 3395
858.002 280.245 0.663 3412
858.042 280.126 0.663 3412
858.122 280.007 0.662 3412
858.202 279.847 0.662 3428
858.242 279.768 0.662 3444
858.322 279.648 0.661 3444
858.362 279.569 0.661 3444
858.402 279.449 0.661 3460
858.482 279.290 0.660 3476
858.523 279.211 0.660 3476
858.563 279.091 0.659 3476
858.603 279.011 0.659 3492
858.643 278.892 0.658 3492
858.683 278.773 0.658 3492
858.723 278.693 0.657 3509
858.763 278.573 0.657 3509
858.803 278.454 0.657 3525
858.843 278.374 0.657 3525
858.883 278.255 0.657 3541
858.923 278.136 0.657 3541
