% x_coordinate y_coordinate pressure time
% shape 0, 395 points
742.289 289.760 0.428 162
742.730 289.561 0.431 162
743.170 289.362 0.434 162
743.611 289.202 0.435 178
744.012 289.043 0.436 178
744.452 288.924 0.436 194
744.853 288.804 0.436 194
745.254 288.685 0.437 210
745.695 288.526 0.437 210
746.135 288.327 0.437 227
746.576 288.088 0.438 227
747.017 287.849 0.438 227
747.578 287.491 0.439 243
748.058 287.172 0.439 243
748.499 286.814 0.441 243
748.980 286.495 0.445 259
749.421 286.137 0.449 275
749.821 285.858 0.456 275
750.182 285.580 0.459 275
750.623 285.301 0.463 291
750.983 285.022 0.466 307
751.304 284.784 0.467 307
751.664 284.505 0.468 307
752.025 284.266 0.469 324
752.386 284.027 0.470 324
752.746 283.749 0.471 340
753.147 283.470 0.473 340
753.588 283.151 0.476 340
753.948 282.873 0.478 356
754.389 282.475 0.482 356
754.750 282.116 0.487 372
755.150 281.798 0.491 372
755.471 281.519 0.497 388
755.831 281.241 0.501 388
756.152 280.962 0.505 388
756.432 280.723 0.508 404
756.713 280.445 0.510 420
756.993 280.206 0.511 420
757.314 279.927 0.512 420
757.594 279.648 0.513 437
757.915 279.330 0.513 437
758.235 278.972 0.514 437
758.516 278.653 0.514 453
758.796 278.335 0.515 469
759.157 277.976 0.517 469
759.437 277.658 0.519 469
759.718 277.339 0.523 485
759.998 277.021 0.526 501
760.279 276.742 0.528 501
760.599 276.424 0.529 501
760.920 276.105 0.530 517
761.200 275.787 0.530 517
761.481 275.469 0.531 517
761.801 275.190 0.532 534
762.082 274.871 0.532 534
762.322 274.553 0.533 550
762.563 274.234 0.534 550
762.803 273.876 0.535 550
763.043 273.518 0.537 566
763.284 273.120 0.538 582
763.484 272.762 0.540 582
763.684 272.443 0.542 582
763.885 272.045 0.543 598
764.165 271.727 0.543 615
764.406 271.368 0.545 615
764.606 270.970 0.545 615
764.806 270.612 0.546 631
765.047 270.293 0.547 631
765.247 269.935 0.548 631
765.447 269.617 0.548 647
765.648 269.258 0.550 647
765.848 268.940 0.552 663
766.008 268.542 0.554 663
766.249 268.184 0.557 663
766.409 267.865 0.560 679
766.649 267.507 0.562 695
766.890 267.188 0.564 695
767.090 266.830 0.564 695
767.290 266.472 0.565 711
767.491 266.193 0.566 728
767.691 265.875 0.566 728
767.851 265.596 0.567 728
768.012 265.317 0.567 744
768.172 265.039 0.567 744
768.372 264.800 0.568 744
768.533 264.561 0.569 760
768.693 264.282 0.571 776
768.893 264.004 0.572 776
769.013 263.765 0.574 776
769.174 263.486 0.576 792
769.334 263.247 0.577 792
769.454 262.969 0.578 808
769.614 262.690 0.579 808
769.775 262.411 0.580 808
769.935 262.093 0.580 825
770.095 261.774 0.581 825
770.215 261.496 0.582 841
770.376 261.177 0.584 841
770.536 260.899 0.586 857
770.696 260.580 0.587 857
770.856 260.301 0.589 857
771.017 260.023 0.592 873
771.177 259.744 0.593 889
771.297 259.466 0.594 889
771.417 259.187 0.595 889
771.538 258.948 0.595 905
771.658 258.709 0.596 905
771.778 258.470 0.596 905
771.898 258.232 0.598 921
772.018 257.993 0.598 938
772.139 257.794 0.599 938
772.259 257.595 0.601 938
772.379 257.396 0.603 954
772.499 257.157 0.605 970
772.579 256.997 0.606 970
772.659 256.838 0.608 970
772.699 256.679 0.610 986
772.740 256.560 0.612 986
772.780 256.400 0.614 986
772.820 256.281 0.615 1002
772.900 256.161 0.617 1002
772.900 256.082 0.617 1019
772.940 255.962 0.618 1019
772.980 255.883 0.618 1035
773.020 255.803 0.618 1035
773.060 255.763 0.618 1051
773.060 255.684 0.619 1051
773.060 255.644 0.619 1051
773.060 255.564 0.619 1067
773.100 255.525 0.620 1067
773.100 255.485 0.621 1067
773.100 255.485 0.623 1083
773.100 255.485 0.625 1100
773.100 255.485 0.627 1100
773.100 255.485 0.628 1100
773.100 255.485 0.628 1116
773.100 255.485 0.627 1132
773.100 255.485 0.626 1132
773.100 255.485 0.625 1132
773.100 255.485 0.626 1148
773.100 255.604 0.627 1148
773.020 255.684 0.627 1164
772.940 255.843 0.628 1164
772.900 255.962 0.628 1180
772.820 256.082 0.628 1180
772.780 256.201 0.628 1180
772.740 256.361 0.629 1197
772.699 256.480 0.629 1197
772.699 256.639 0.630 1213
772.659 256.838 0.630 1213
772.619 256.997 0.630 1213
772.579 257.236 0.630 1229
772.579 257.475 0.631 1245
772.539 257.714 0.631 1245
772.499 257.993 0.632 1245
772.499 258.271 0.633 1261
772.459 258.550 0.634 1261
772.419 258.868 0.635 1261
772.379 259.187 0.637 1277
772.379 259.505 0.639 1294
772.339 259.864 0.641 1294
772.339 260.182 0.644 1294
772.339 260.461 0.647 1310
772.339 260.739 0.649 1326
772.339 261.058 0.651 1326
772.339 261.337 0.652 1326
772.339 261.615 0.653 1342
772.339 261.934 0.654 1342
772.339 262.212 0.656 1342
772.339 262.531 0.657 1358
772.339 262.809 0.658 1374
772.339 263.128 0.659 1374
772.339 263.407 0.660 1374
772.299 263.685 0.660 1391
772.339 263.964 0.661 1391
772.379 264.282 0.661 1407
772.419 264.561 0.661 1407
772.499 264.840 0.661 1407
772.539 265.118 0.661 1423
772.619 265.397 0.661 1423
772.659 265.676 0.662 1423
772.740 265.954 0.661 1439
772.820 266.233 0.662 1455
772.900 266.551 0.662 1455
772.980 266.790 0.662 1455
773.060 267.029 0.662 1471
773.180 267.228 0.662 1471
773.260 267.427 0.662 1487
773.381 267.626 0.662 1487
773.501 267.825 0.662 1504
773.581 268.024 0.662 1504
773.661 268.144 0.662 1520
773.781 268.343 0.662 1520
773.861 268.502 0.662 1520
773.942 268.661 0.663 1536
774.062 268.900 0.662 1552
774.142 269.059 0.663 1552
774.262 269.219 0.663 1552
774.342 269.378 0.663 1568
774.462 269.537 0.663 1568
774.583 269.696 0.663 1568
774.703 269.895 0.663 1584
774.823 270.094 0.663 1601
774.943 270.293 0.663 1601
775.063 270.492 0.662 1601
775.184 270.691 0.663 1617
775.304 270.851 0.663 1617
775.464 271.090 0.663 1633
775.584 271.289 0.663 1633
775.745 271.448 0.663 1649
775.865 271.647 0.663 1649
776.025 271.806 0.663 1649
776.145 271.965 0.663 1665
776.265 272.125 0.664 1665
776.426 272.324 0.663 1681
776.546 272.523 0.663 1681
776.706 272.682 0.663 1681
776.786 272.841 0.663 1698
776.906 273.040 0.663 1714
777.067 273.199 0.664 1714
777.187 273.359 0.664 1714
777.307 273.518 0.664 1730
777.467 273.677 0.664 1730
777.628 273.797 0.664 1730
777.788 273.956 0.665 1746
777.908 274.115 0.666 1763
778.068 274.274 0.668 1763
778.229 274.433 0.669 1763
778.389 274.593 0.670 1779
778.509 274.712 0.672 1795
778.669 274.871 0.673 1795
778.790 274.991 0.674 1795
778.910 275.150 0.674 1811
779.030 275.269 0.675 1811
779.150 275.429 0.676 1811
779.310 275.588 0.677 1827
779.431 275.787 0.679 1827
779.591 275.946 0.680 1843
779.711 276.105 0.682 1843
779.831 276.265 0.682 1859
779.952 276.384 0.683 1859
780.072 276.543 0.685 1876
780.272 276.663 0.685 1876
780.352 276.782 0.686 1876
780.472 276.902 0.688 1892
780.593 277.021 0.689 1892
780.713 277.180 0.691 1908
780.793 277.300 0.692 1908
780.913 277.459 0.692 1924
780.993 277.578 0.693 1924
781.073 277.738 0.695 1924
781.194 277.937 0.697 1940
781.234 278.096 0.697 1957
781.314 278.255 0.698 1957
781.394 278.414 0.699 1957
781.474 278.573 0.700 1973
781.554 278.733 0.699 1973
781.594 278.932 0.700 1973
781.674 279.091 0.701 1989
781.755 279.250 0.701 2005
781.795 279.449 0.701 2005
781.835 279.609 0.701 2005
781.875 279.808 0.701 2021
781.955 279.967 0.701 2021
781.995 280.126 0.702 2037
781.995 280.325 0.702 2037
782.035 280.484 0.702 2054
782.075 280.644 0.701 2054
782.115 280.803 0.702 2054
782.155 280.962 0.702 2070
782.155 281.121 0.702 2070
782.195 281.281 0.702 2086
782.195 281.400 0.703 2086
782.235 281.559 0.702 2086
782.235 281.718 0.703 2102
782.235 281.917 0.703 2118
782.235 282.077 0.703 2118
782.235 282.236 0.703 2118
782.235 282.395 0.704 2134
782.235 282.634 0.704 2134
782.235 282.793 0.704 2151
782.235 282.952 0.704 2151
782.195 283.112 0.704 2151
782.195 283.271 0.705 2167
782.195 283.470 0.704 2167
782.115 283.629 0.705 2183
782.075 283.788 0.705 2183
781.995 283.987 0.705 2199
781.955 284.147 0.705 2199
781.875 284.346 0.705 2199
781.755 284.505 0.706 2215
781.714 284.704 0.706 2231
781.634 284.943 0.706 2231
781.594 285.142 0.706 2231
781.514 285.301 0.706 2247
781.434 285.500 0.706 2264
781.354 285.659 0.705 2264
781.274 285.819 0.706 2264
781.194 285.938 0.707 2280
781.073 286.097 0.707 2280
780.993 286.296 0.707 2280
780.873 286.456 0.707 2297
780.753 286.615 0.707 2297
780.673 286.774 0.707 2313
780.513 286.973 0.707 2313
780.352 287.132 0.708 2329
780.192 287.331 0.708 2329
780.032 287.491 0.708 2345
779.831 287.690 0.708 2345
779.671 287.809 0.707 2345
779.471 287.968 0.707 2361
779.310 288.088 0.708 2361
779.110 288.207 0.708 2361
778.950 288.327 0.708 2378
778.750 288.446 0.708 2394
778.589 288.565 0.708 2394
778.429 288.685 0.708 2394
778.269 288.764 0.709 2410
778.068 288.884 0.709 2427
777.908 288.964 0.709 2427
777.748 289.083 0.709 2427
777.588 289.202 0.709 2443
777.427 289.282 0.709 2443
777.267 289.401 0.709 2443
777.107 289.561 0.709 2459
776.906 289.680 0.709 2476
776.746 289.760 0.709 2476
776.546 289.879 0.709 2476
776.386 289.998 0.709 2492
776.225 290.078 0.709 2492
776.025 290.158 0.709 2508
775.865 290.237 0.710 2508
775.664 290.277 0.710 2508
775.504 290.317 0.710 2524
775.304 290.357 0.711 2524
775.144 290.397 0.711 2524
774.943 290.436 0.711 2540
774.783 290.436 0.711 2557
774.583 290.476 0.711 2557
774.422 290.476 0.711 2557
774.222 290.476 0.712 2573
774.062 290.476 0.712 2589
773.861 290.516 0.712 2589
773.621 290.516 0.712 2589
773.461 290.516 0.712 2605
773.301 290.516 0.713 2605
773.100 290.516 0.712 2605
772.900 290.556 0.712 2621
772.740 290.556 0.712 2638
772.579 290.596 0.712 2638
772.459 290.635 0.712 2638
772.299 290.635 0.713 2654
772.139 290.635 0.713 2654
771.978 290.635 0.713 2670
771.818 290.635 0.713 2670
771.618 290.635 0.714 2670
771.417 290.635 0.714 2686
771.217 290.556 0.714 2686
770.977 290.476 0.714 2703
770.776 290.357 0.714 2703
770.536 290.237 0.714 2719
770.255 290.078 0.715 2719
770.015 289.839 0.715 2719
769.694 289.561 0.715 2735
769.414 289.242 0.715 2752
769.053 288.884 0.715 2752
768.733 288.446 0.714 2752
768.372 288.008 0.702 2768
768.012 287.570 0.670 2768
767.611 287.093 0.607 2768
767.170 286.655 0.512 2784
766.730 286.217 0.385 2800
766.249 285.699 0.142 2800

