% x_coordinate y_coordinate pressure time
% shape 0, 820 points

728.047 159.296 0.479 210
728.167 159.057 0.486 226
728.327 158.858 0.492 226
728.528 158.620 0.499 242
728.728 158.421 0.503 242
728.888 158.221 0.505 242
729.129 158.022 0.508 258
729.329 157.823 0.509 275
729.529 157.624 0.509 275
729.729 157.465 0.511 275
729.890 157.266 0.512 291
730.090 157.067 0.514 291
730.291 156.828 0.516 291
730.491 156.589 0.519 307
730.691 156.390 0.527 323
730.892 156.151 0.534 323
731.132 155.873 0.539 323
731.332 155.674 0.543 339
731.532 155.435 0.546 339
731.693 155.196 0.549 356
731.853 155.037 0.551 356
732.013 154.838 0.552 356
732.214 154.599 0.553 372
732.374 154.440 0.553 388
732.534 154.320 0.554 388
732.694 154.161 0.554 388
732.855 154.002 0.554 404
732.975 153.843 0.554 404
733.095 153.683 0.554 404
733.255 153.564 0.555 420
733.376 153.365 0.555 436
733.536 153.206 0.555 436
733.776 153.046 0.556 436
733.937 152.887 0.557 452
734.137 152.688 0.558 469
734.337 152.529 0.559 469
734.497 152.370 0.560 469
734.698 152.211 0.562 485
734.858 152.051 0.562 485
735.058 151.932 0.562 485
735.259 151.812 0.563 501
735.419 151.733 0.563 501
735.579 151.653 0.563 517
735.780 151.534 0.563 517
735.980 151.454 0.563 533
736.140 151.374 0.563 533
736.341 151.255 0.564 549
736.541 151.175 0.563 549
736.781 151.096 0.564 549
736.942 150.976 0.564 566
737.102 150.897 0.564 582
737.262 150.817 0.565 582
737.422 150.738 0.565 582
737.583 150.698 0.565 598
737.743 150.618 0.565 598
737.943 150.539 0.565 598
738.104 150.499 0.565 615
738.304 150.419 0.566 631
738.504 150.379 0.565 631
738.705 150.300 0.566 631
738.905 150.220 0.567 647
739.065 150.180 0.567 647
739.225 150.140 0.568 664
739.386 150.101 0.570 664
739.546 150.061 0.570 664
739.666 150.061 0.571 680
739.826 150.061 0.571 680
740.027 150.061 0.571 696
740.187 150.061 0.572 696
740.387 150.061 0.572 712
740.548 150.061 0.572 712
740.748 150.061 0.573 712
740.908 150.061 0.572 729
741.109 150.061 0.573 745
741.309 150.061 0.574 745
741.469 150.061 0.574 745
741.669 150.061 0.574 761
741.830 150.021 0.575 761
741.990 149.981 0.575 761
742.150 149.981 0.575 777
742.270 149.981 0.575 793
742.391 149.981 0.575 793
742.511 149.981 0.576 794
742.671 149.981 0.576 809
742.791 149.981 0.576 809
742.952 149.981 0.577 825
743.072 149.981 0.576 825
743.232 149.981 0.577 825
743.392 149.981 0.577 841
743.553 149.981 0.577 857
743.673 149.981 0.577 857
743.873 149.981 0.577 857
743.993 149.981 0.577 874
744.154 150.021 0.577 874
744.314 150.101 0.577 874
744.474 150.140 0.577 890
744.594 150.180 0.578 906
744.755 150.220 0.578 906
744.915 150.260 0.577 906
745.075 150.339 0.578 923
745.195 150.379 0.578 923
745.356 150.419 0.578 923
745.516 150.459 0.578 939
745.636 150.539 0.578 955
745.756 150.578 0.578 955
745.917 150.658 0.578 955
746.037 150.698 0.577 971
746.197 150.777 0.578 971
746.317 150.857 0.578 987
746.478 150.937 0.578 987
746.598 151.016 0.579 987
746.758 151.096 0.579 1004
746.878 151.136 0.578 1020
746.998 151.215 0.579 1020
747.119 151.255 0.579 1020
747.199 151.335 0.579 1036
747.319 151.414 0.580 1036
747.399 151.454 0.580 1036
747.519 151.534 0.581 1052
747.599 151.613 0.582 1068
747.719 151.693 0.582 1068
747.840 151.812 0.582 1068
747.920 151.852 0.583 1085
748.040 151.932 0.582 1085
748.160 152.051 0.583 1101
748.281 152.131 0.583 1101
748.441 152.250 0.584 1117
748.561 152.330 0.585 1117
748.641 152.410 0.585 1133
748.721 152.489 0.585 1133
748.801 152.609 0.587 1133
748.922 152.688 0.587 1149
748.962 152.808 0.587 1149
749.042 152.927 0.587 1149
749.122 153.086 0.587 1165
749.242 153.206 0.589 1182
749.282 153.325 0.590 1182
749.362 153.445 0.590 1182
749.482 153.564 0.591 1198
749.563 153.683 0.591 1214
749.643 153.803 0.591 1214
749.723 153.922 0.592 1214
749.803 154.042 0.592 1230
749.843 154.201 0.592 1230
749.883 154.320 0.593 1230
749.923 154.440 0.593 1246
749.963 154.639 0.593 1263
750.043 154.758 0.593 1263
750.083 154.878 0.593 1263
750.124 154.997 0.593 1279
750.124 155.116 0.594 1279
750.164 155.236 0.596 1295
750.204 155.355 0.597 1295
750.244 155.475 0.599 1296
750.284 155.634 0.601 1311
750.324 155.753 0.603 1311
750.364 155.913 0.605 1327
750.404 156.032 0.606 1327
750.444 156.191 0.607 1343
750.484 156.351 0.608 1343
750.484 156.470 0.608 1344
750.524 156.629 0.609 1359
750.644 156.749 0.610 1375
750.684 156.948 0.611 1375
750.724 157.067 0.612 1375
750.724 157.226 0.612 1391
750.724 157.386 0.613 1407
750.724 157.545 0.616 1407
750.765 157.704 0.616 1407
750.724 157.903 0.618 1423
750.684 158.062 0.620 1423
750.684 158.261 0.620 1423
750.644 158.460 0.621 1439
750.644 158.659 0.622 1455
750.644 158.819 0.623 1455
750.644 158.978 0.624 1455
750.644 159.217 0.625 1471
750.644 159.416 0.626 1471
750.644 159.575 0.627 1488
750.644 159.734 0.628 1488
750.644 159.933 0.629 1488
750.604 160.132 0.630 1504
750.604 160.331 0.630 1504
750.564 160.530 0.630 1504
750.564 160.690 0.630 1520
750.524 160.889 0.631 1536
750.484 161.128 0.632 1536
750.444 161.327 0.632 1536
750.404 161.565 0.632 1552
750.404 161.725 0.634 1568
750.324 161.924 0.634 1568
750.284 162.123 0.634 1568
750.284 162.322 0.635 1584
750.244 162.521 0.635 1584
750.244 162.720 0.635 1600
750.204 162.919 0.636 1600
750.164 163.078 0.636 1616
750.124 163.237 0.637 1616
750.083 163.397 0.637 1616
750.043 163.556 0.637 1632
750.003 163.715 0.638 1632
749.963 163.954 0.639 1648
749.923 164.113 0.640 1648
749.883 164.312 0.641 1664
749.803 164.511 0.642 1664
749.763 164.670 0.642 1680
749.723 164.870 0.643 1680
749.603 165.069 0.642 1680
749.603 165.268 0.643 1697
749.522 165.467 0.643 1697
749.482 165.666 0.643 1697
749.442 165.865 0.644 1713
749.402 166.024 0.644 1729
749.362 166.263 0.644 1729
749.322 166.422 0.644 1729
749.282 166.621 0.644 1745
749.242 166.780 0.644 1761
749.162 166.979 0.645 1761
749.122 167.178 0.645 1761
749.082 167.378 0.645 1777
749.002 167.537 0.647 1777
748.962 167.736 0.646 1777
748.922 167.935 0.647 1793
748.841 168.174 0.647 1809
748.801 168.333 0.647 1809
748.721 168.572 0.647 1809
748.681 168.771 0.648 1825
748.641 168.930 0.647 1825
748.601 169.089 0.648 1841
748.561 169.209 0.648 1841
748.521 169.368 0.648 1841
748.481 169.487 0.648 1857
748.441 169.607 0.648 1874
748.401 169.766 0.648 1874
748.361 169.925 0.649 1874
748.321 170.045 0.649 1890
748.281 170.204 0.649 1890
748.240 170.363 0.650 1890
748.160 170.522 0.649 1906
748.120 170.682 0.650 1922
748.080 170.801 0.650 1922
748.040 171.000 0.650 1922
748.000 171.159 0.650 1938
747.960 171.318 0.651 1954
747.920 171.438 0.650 1954
747.880 171.597 0.651 1954
747.840 171.717 0.651 1970
747.840 171.876 0.651 1970
747.800 171.995 0.651 1970
747.760 172.154 0.651 1986
747.760 172.274 0.651 1986
747.719 172.393 0.652 2002
747.679 172.553 0.651 2002
747.639 172.672 0.652 2018
747.599 172.791 0.652 2018
747.559 172.911 0.652 2034
747.519 173.070 0.652 2034
747.479 173.189 0.653 2034
747.439 173.349 0.652 2050
747.399 173.468 0.652 2066
747.399 173.588 0.652 2066
747.359 173.707 0.652 2066
747.319 173.826 0.653 2083
747.319 173.946 0.652 2083
747.319 174.105 0.652 2083
747.279 174.224 0.653 2099
747.279 174.344 0.653 2115
747.279 174.463 0.652 2115
747.239 174.622 0.653 2116
747.239 174.742 0.652 2131
747.199 174.901 0.653 2147
747.199 175.021 0.653 2147
747.159 175.180 0.652 2147
747.159 175.299 0.653 2163
747.159 175.459 0.653 2163
747.159 175.618 0.653 2163
747.119 175.777 0.653 2179
747.119 175.896 0.653 2179
747.159 176.056 0.653 2195
747.119 176.175 0.653 2195
747.119 176.334 0.653 2211
747.119 176.454 0.653 2211
747.119 176.613 0.654 2227
747.119 176.732 0.653 2227
747.119 176.892 0.653 2227
747.159 177.011 0.654 2243
747.159 177.170 0.653 2259
747.119 177.330 0.653 2259
747.119 177.489 0.654 2259
747.119 177.648 0.653 2275
747.119 177.807 0.654 2275
747.159 178.006 0.653 2276
747.159 178.165 0.653 2291
747.159 178.325 0.654 2307
747.199 178.484 0.653 2307
747.199 178.643 0.653 2307
747.239 178.802 0.654 2323
747.239 178.962 0.653 2323
747.279 179.121 0.654 2340
747.319 179.240 0.654 2340
747.359 179.400 0.653 2340
747.399 179.519 0.654 2356
747.439 179.638 0.654 2372
747.479 179.758 0.653 2372
747.519 179.877 0.653 2372
747.559 179.957 0.653 2388
747.599 180.076 0.653 2388
747.639 180.156 0.654 2388
747.679 180.315 0.654 2404
747.760 180.435 0.654 2420
747.800 180.594 0.654 2420
747.840 180.713 0.654 2420
747.920 180.872 0.654 2436
748.000 180.992 0.655 2436
748.040 181.111 0.654 2452
748.120 181.271 0.654 2452
748.160 181.390 0.655 2452
748.240 181.549 0.654 2468
748.321 181.669 0.654 2484
748.401 181.828 0.654 2484
748.521 181.947 0.654 2484
748.561 182.067 0.654 2500
748.681 182.186 0.654 2500
748.761 182.306 0.654 2500
748.841 182.425 0.654 2516
748.962 182.544 0.654 2533
749.042 182.704 0.654 2533
749.162 182.783 0.654 2533
749.242 182.863 0.653 2549
749.362 182.982 0.654 2565
749.482 183.062 0.654 2565
749.603 183.102 0.653 2565
749.683 183.181 0.654 2581
749.763 183.261 0.655 2581
749.883 183.341 0.654 2581
749.963 183.420 0.655 2597
750.043 183.500 0.655 2613
750.124 183.540 0.655 2613
750.244 183.619 0.655 2613
750.364 183.659 0.656 2629
750.444 183.739 0.655 2629
750.564 183.818 0.656 2645
750.644 183.858 0.656 2645
750.765 183.938 0.656 2661
750.885 183.977 0.657 2661
751.005 184.057 0.657 2661
751.005 184.137 0.658 2677
751.085 184.177 0.658 2677
751.205 184.256 0.657 2694
751.326 184.296 0.659 2694
751.446 184.376 0.659 2694
751.526 184.415 0.658 2710
751.646 184.495 0.659 2726
751.766 184.535 0.658 2726
751.886 184.575 0.658 2726
752.007 184.614 0.659 2742
752.127 184.654 0.658 2758
752.247 184.654 0.659 2758
752.367 184.694 0.660 2758
752.527 184.694 0.661 2774
752.648 184.734 0.663 2774
752.768 184.774 0.664 2774
752.928 184.774 0.664 2790
753.048 184.813 0.665 2806
753.169 184.853 0.666 2806
753.329 184.893 0.665 2806
753.449 184.893 0.667 2822
753.609 184.973 0.666 2822
753.730 185.092 0.667 2838
753.890 185.092 0.668 2838
754.090 185.092 0.669 2838
754.250 185.052 0.672 2855
754.451 185.013 0.674 2855
754.611 185.013 0.675 2871
754.811 185.013 0.678 2871
754.972 185.013 0.680 2887
755.132 185.013 0.680 2887
755.292 185.013 0.682 2887
755.452 185.013 0.682 2903
755.653 185.013 0.682 2919
755.773 185.013 0.683 2919
755.933 185.052 0.683 2919
756.094 185.052 0.683 2935
756.254 185.052 0.684 2935
756.414 185.092 0.684 2935
756.534 185.092 0.684 2951
756.655 185.052 0.685 2967
756.815 185.052 0.686 2967
756.935 185.092 0.687 2967
757.015 185.092 0.687 2983
757.135 185.092 0.687 2999
757.215 185.132 0.688 2999
757.336 185.132 0.687 2999
757.456 185.172 0.688 3015
757.576 185.212 0.688 3015
757.696 185.212 0.688 3015
757.856 185.212 0.688 3031
758.017 185.212 0.689 3048
758.177 185.212 0.689 3048
758.297 185.172 0.689 3048
758.457 185.172 0.689 3064
758.618 185.172 0.690 3064
758.778 185.132 0.689 3080
758.938 185.132 0.690 3080
759.058 185.132 0.689 3080
759.219 185.092 0.689 3096
759.379 185.052 0.690 3096
759.539 185.052 0.689 3112
759.659 185.013 0.691 3112
759.820 184.973 0.691 3128
759.940 184.933 0.691 3128
760.100 184.893 0.691 3128
760.220 184.893 0.691 3144
760.341 184.813 0.691 3160
760.501 184.774 0.692 3160
760.621 184.774 0.691 3160
760.741 184.774 0.691 3176
760.861 184.734 0.692 3176
760.982 184.734 0.691 3176
761.102 184.694 0.692 3192
761.222 184.654 0.692 3209
761.342 184.614 0.692 3209
761.503 184.535 0.692 3209
761.663 184.495 0.692 3225
761.783 184.415 0.692 3241
761.943 184.376 0.693 3241
762.104 184.296 0.693 3241
762.264 184.216 0.693 3257
762.424 184.177 0.693 3257
762.584 184.097 0.693 3273
762.745 184.017 0.693 3273
762.905 183.898 0.694 3273
763.065 183.818 0.693 3289
763.265 183.699 0.694 3289
763.426 183.579 0.695 3289
763.586 183.500 0.694 3305
763.746 183.380 0.695 3322
763.906 183.261 0.696 3322
764.067 183.181 0.696 3322
764.227 183.062 0.697 3338
764.387 182.943 0.698 3355
764.588 182.823 0.698 3355
764.748 182.704 0.699 3355
764.908 182.624 0.699 3371
765.068 182.505 0.700 3371
765.229 182.345 0.701 3371
765.389 182.306 0.701 3387
765.589 182.186 0.702 3403
765.750 182.067 0.702 3403
765.910 181.907 0.702 3403
766.070 181.788 0.703 3419
766.271 181.629 0.704 3419
766.431 181.470 0.703 3435
766.591 181.271 0.704 3435
766.791 181.072 0.704 3435
766.911 180.872 0.704 3451
767.112 180.673 0.705 3467
767.232 180.474 0.705 3467
767.392 180.236 0.705 3467
767.513 180.036 0.705 3484
767.673 179.837 0.705 3484
767.753 179.678 0.706 3484
767.833 179.519 0.706 3500
767.953 179.360 0.706 3516
767.993 179.201 0.706 3516
768.114 179.041 0.707 3516
768.194 178.882 0.706 3532
768.274 178.723 0.706 3532
768.354 178.524 0.706 3548
768.474 178.365 0.706 3548
768.594 178.165 0.707 3564
768.674 177.927 0.706 3564
768.795 177.688 0.706 3564
768.955 177.489 0.707 3580
769.075 177.290 0.706 3580
769.195 177.130 0.706 3596
769.276 176.971 0.707 3596
769.396 176.812 0.706 3612
769.476 176.653 0.707 3612
769.596 176.533 0.707 3628
769.676 176.374 0.706 3628
769.796 176.215 0.707 3628
769.917 176.056 0.707 3645
769.997 175.896 0.706 3645
770.157 175.697 0.707 3645
770.277 175.498 0.707 3661
770.397 175.260 0.706 3677
770.517 175.060 0.707 3677
770.638 174.901 0.707 3677
770.758 174.702 0.707 3693
770.878 174.503 0.707 3709
770.998 174.344 0.708 3709
771.078 174.185 0.709 3709
771.159 174.025 0.711 3725
771.279 173.866 0.711 3725
771.359 173.707 0.713 3741
771.479 173.548 0.714 3741
771.559 173.388 0.713 3757
771.679 173.189 0.714 3757
771.840 172.951 0.715 3757
772.000 172.712 0.714 3773
772.120 172.513 0.715 3773
772.281 172.274 0.715 3789
772.441 172.075 0.714 3789
772.521 171.836 0.716 3789
772.641 171.637 0.715 3806
772.761 171.438 0.716 3822
772.841 171.279 0.717 3822
772.922 171.119 0.717 3822
772.962 170.960 0.719 3838
773.002 170.801 0.721 3838
773.082 170.682 0.722 3838
773.122 170.482 0.724 3854
773.162 170.363 0.725 3870
773.202 170.204 0.725 3870
773.242 170.045 0.726 3870
773.322 169.925 0.727 3886
773.362 169.806 0.727 3902
773.402 169.686 0.728 3902
773.482 169.567 0.727 3902
773.522 169.447 0.727 3918
773.603 169.328 0.728 3918
773.683 169.209 0.728 3918
773.723 169.049 0.728 3935
773.803 168.890 0.730 3935
773.883 168.771 0.731 3951
774.003 168.612 0.732 3951
774.083 168.452 0.734 3967
774.164 168.293 0.734 3967
774.244 168.094 0.735 3983
774.324 167.935 0.735 3983
774.404 167.736 0.735 3983
774.484 167.577 0.736 3999
774.524 167.378 0.736 4015
774.604 167.218 0.737 4015
774.684 167.059 0.738 4015
774.805 166.900 0.738 4031
774.845 166.740 0.739 4031
774.925 166.581 0.740 4031
775.005 166.422 0.739 4047
775.085 166.303 0.740 4063
775.125 166.143 0.741 4063
775.165 165.984 0.741 4063
775.205 165.785 0.741 4079
775.245 165.626 0.741 4095
775.326 165.467 0.741 4095
775.366 165.307 0.742 4095
775.446 165.148 0.742 4111
775.526 164.949 0.742 4111
775.606 164.790 0.743 4111
775.686 164.631 0.742 4128
775.726 164.471 0.742 4128
775.806 164.312 0.743 4144
775.927 164.193 0.742 4144
775.967 164.034 0.742 4144
776.047 163.914 0.743 4160
776.127 163.755 0.742 4176
776.207 163.635 0.742 4176
776.287 163.436 0.742 4176
776.327 163.277 0.742 4192
776.407 163.118 0.743 4192
776.487 162.959 0.743 4192
776.568 162.760 0.742 4208
776.608 162.600 0.743 4224
776.688 162.401 0.743 4224
776.768 162.242 0.743 4224
776.848 162.043 0.744 4240
776.928 161.884 0.743 4256
777.008 161.685 0.743 4256
777.048 161.526 0.744 4256
777.129 161.327 0.743 4273
777.209 161.128 0.744 4273
777.289 160.929 0.744 4273
777.369 160.729 0.743 4289
777.409 160.530 0.744 4305
777.489 160.371 0.744 4305
777.529 160.172 0.744 4305
777.609 160.013 0.744 4321
777.649 159.854 0.745 4321
777.690 159.694 0.745 4337
777.770 159.495 0.745 4337
777.850 159.336 0.745 4337
777.890 159.177 0.746 4353
777.970 158.978 0.746 4369
778.010 158.779 0.746 4369
778.090 158.580 0.746 4369
778.170 158.381 0.747 4385
778.210 158.182 0.746 4385
778.290 157.983 0.747 4385
778.371 157.784 0.747 4401
778.411 157.585 0.747 4418
778.451 157.346 0.748 4418
778.491 157.147 0.748 4418
778.531 156.948 0.747 4434
778.531 156.749 0.748 4434
778.571 156.550 0.748 4450
778.571 156.271 0.748 4450
778.611 156.112 0.750 4466
778.611 155.952 0.748 4466
778.651 155.753 0.749 4467
778.651 155.594 0.750 4482
778.771 155.435 0.748 4482
778.811 155.276 0.749 4498
778.811 155.116 0.749 4498
778.851 154.957 0.748 4498
778.851 154.838 0.750 4514
778.851 154.679 0.749 4530
778.851 154.559 0.748 4530
778.891 154.400 0.750 4530
778.891 154.281 0.749 4546
778.891 154.121 0.748 4563
778.891 153.962 0.750 4563
778.891 153.843 0.749 4563
778.891 153.683 0.750 4579
778.891 153.564 0.750 4579
778.851 153.445 0.750 4595
778.851 153.285 0.750 4595
778.851 153.166 0.750 4595
778.891 153.046 0.750 4611
778.851 152.967 0.751 4611
778.811 152.887 0.751 4612
778.771 152.808 0.750 4627
778.691 152.728 0.751 4643
778.651 152.648 0.751 4643
778.571 152.609 0.751 4644
778.571 152.529 0.751 4659
778.491 152.449 0.752 4676
778.451 152.370 0.752 4676
778.411 152.250 0.752 4677
778.371 152.171 0.752 4692
778.331 152.051 0.752 4692
778.290 151.972 0.752 4693
778.250 151.892 0.752 4708
778.210 151.852 0.752 4724
778.170 151.733 0.752 4724
778.090 151.693 0.752 4725
778.050 151.613 0.752 4740
778.010 151.573 0.751 4740
777.890 151.573 0.751 4756
777.810 151.534 0.752 4756
777.690 151.494 0.751 4772
777.569 151.454 0.751 4772
777.449 151.414 0.752 4772
777.329 151.374 0.752 4789
777.209 151.335 0.752 4789
777.089 151.295 0.753 4805
776.968 151.215 0.753 4805
776.848 151.136 0.753 4821
776.728 151.056 0.754 4821
776.608 151.016 0.753 4837
776.487 150.937 0.754 4837
776.367 150.897 0.753 4838
776.367 150.857 0.754 4853
776.247 150.857 0.754 4853
776.087 150.857 0.752 4854
775.927 150.857 0.751 4869
775.806 150.857 0.751 4885
775.646 150.857 0.750 4885
775.446 150.857 0.750 4886
775.285 150.937 0.751 4901
775.165 151.016 0.750 4917
775.005 151.096 0.751 4917
774.885 151.175 0.752 4917
774.765 151.255 0.751 4933
774.644 151.295 0.751 4933
774.564 151.335 0.752 4949
774.444 151.414 0.752 4949
774.324 151.454 0.753 4949
774.244 151.494 0.752 4965
774.164 151.573 0.752 4981
774.083 151.653 0.753 4981
773.963 151.733 0.752 4981
773.883 151.892 0.751 4997
773.763 152.011 0.752 4997
773.643 152.131 0.751 4998
773.522 152.250 0.751 5013
773.402 152.370 0.751 5029
773.282 152.529 0.751 5029
773.202 152.648 0.751 5029
773.122 152.768 0.751 5045
773.042 152.927 0.751 5061
772.962 153.046 0.751 5061
772.881 153.206 0.751 5061
772.841 153.325 0.751 5077
772.761 153.445 0.752 5077
772.681 153.564 0.751 5077
772.641 153.723 0.751 5093
772.561 153.882 0.752 5093
772.521 154.002 0.751 5110
772.481 154.161 0.751 5110
772.441 154.400 0.751 5126
772.441 154.559 0.751 5126
772.321 154.758 0.751 5142
772.321 154.957 0.751 5142
772.321 155.156 0.751 5142
772.321 155.355 0.752 5158
772.281 155.554 0.752 5158
772.281 155.753 0.752 5158
772.281 155.952 0.752 5174
772.281 156.112 0.752 5190
772.281 156.271 0.752 5190
772.281 156.430 0.753 5190
772.281 156.629 0.752 5206
772.321 156.788 0.752 5222
772.321 156.948 0.753 5222
772.361 157.067 0.752 5222
772.401 157.226 0.752 5238
772.481 157.346 0.753 5238
772.521 157.505 0.753 5254
772.601 157.664 0.754 5254
772.641 157.823 0.755 5271
772.721 158.022 0.755 5271
772.841 158.221 0.756 5271
772.922 158.460 0.755 5287
772.962 158.659 0.756 5287
